# Pulseq sequence file
# Created by MATLAB mr toolbox

[VERSION]
major 1
minor 4
revision 1

[DEFINITIONS]
AdcRasterTime 1e-07 
BlockDurationRaster 1e-05 
FOV 0.24 0.24 0.03 
GradientRasterTime 1e-05 
Name OSSI 
RadiofrequencyRasterTime 1e-06 
TotalDuration 19.2864 

# Format of blocks:
# NUM DUR RF  GX  GY  GZ  ADC  EXT
[BLOCKS]
   1 350   1   0   0   1  0  1
   2  52   0   0   0   2  0  0
   3 1980   0   3   4   0  0  0
   4  52   0   0   0   5  0  0
   5  92   0   6   0   7  0  0
   6 1492   0   0   0   0  0  0
   7 350   2   0   0   1  0  1
   8  52   0   0   0   8  0  0
   9 1980   0   3   4   0  0  0
  10  52   0   0   0   9  0  0
  11  92   0   6   0   7  0  0
  12 1492   0   0   0   0  0  0
  13 350   3   0   0   1  0  1
  14  52   0   0   0  10  0  0
  15 1980   0   3   4   0  0  0
  16  52   0   0   0  11  0  0
  17  92   0   6   0   7  0  0
  18 1492   0   0   0   0  0  0
  19 350   4   0   0   1  0  1
  20  52   0   0   0  12  0  0
  21 1980   0   3   4   0  0  0
  22  52   0   0   0  13  0  0
  23  92   0   6   0   7  0  0
  24 1492   0   0   0   0  0  0
  25 350   5   0   0   1  0  1
  26  52   0   0   0  14  0  0
  27 1980   0   3   4   0  0  0
  28  52   0   0   0  15  0  0
  29  92   0   6   0   7  0  0
  30 1492   0   0   0   0  0  0
  31 350   6   0   0   1  0  1
  32  52   0   0   0  15  0  0
  33 1980   0   3   4   0  0  0
  34  52   0   0   0  14  0  0
  35  92   0   6   0   7  0  0
  36 1492   0   0   0   0  0  0
  37 350   7   0   0   1  0  1
  38  52   0   0   0  13  0  0
  39 1980   0   3   4   0  0  0
  40  52   0   0   0  12  0  0
  41  92   0   6   0   7  0  0
  42 1492   0   0   0   0  0  0
  43 350   8   0   0   1  0  1
  44  52   0   0   0  11  0  0
  45 1980   0   3   4   0  0  0
  46  52   0   0   0  10  0  0
  47  92   0   6   0   7  0  0
  48 1492   0   0   0   0  0  0
  49 350   9   0   0   1  0  1
  50  52   0   0   0   9  0  0
  51 1980   0   3   4   0  0  0
  52  52   0   0   0   8  0  0
  53  92   0   6   0   7  0  0
  54 1492   0   0   0   0  0  0
  55 350  10   0   0   1  0  1
  56  52   0   0   0   5  0  0
  57 1980   0   3   4   0  0  0
  58  52   0   0   0   2  0  0
  59  92   0   6   0   7  0  0
  60 1492   0   0   0   0  0  0
  61 350  11   0   0   1  0  2
  62  52   0   0   0   2  0  0
  63 1980   0  16   3   0  0  0
  64  52   0   0   0   5  0  0
  65  92   0   6   0   7  0  0
  66 1492   0   0   0   0  0  0
  67 350  12   0   0   1  0  2
  68  52   0   0   0   8  0  0
  69 1980   0  16   3   0  0  0
  70  52   0   0   0   9  0  0
  71  92   0   6   0   7  0  0
  72 1492   0   0   0   0  0  0
  73 350  13   0   0   1  0  2
  74  52   0   0   0  10  0  0
  75 1980   0  16   3   0  0  0
  76  52   0   0   0  11  0  0
  77  92   0   6   0   7  0  0
  78 1492   0   0   0   0  0  0
  79 350  14   0   0   1  0  2
  80  52   0   0   0  12  0  0
  81 1980   0  16   3   0  0  0
  82  52   0   0   0  13  0  0
  83  92   0   6   0   7  0  0
  84 1492   0   0   0   0  0  0
  85 350  15   0   0   1  0  2
  86  52   0   0   0  14  0  0
  87 1980   0  16   3   0  0  0
  88  52   0   0   0  15  0  0
  89  92   0   6   0   7  0  0
  90 1492   0   0   0   0  0  0
  91 350  16   0   0   1  0  2
  92  52   0   0   0  15  0  0
  93 1980   0  16   3   0  0  0
  94  52   0   0   0  14  0  0
  95  92   0   6   0   7  0  0
  96 1492   0   0   0   0  0  0
  97 350  17   0   0   1  0  2
  98  52   0   0   0  13  0  0
  99 1980   0  16   3   0  0  0
 100  52   0   0   0  12  0  0
 101  92   0   6   0   7  0  0
 102 1492   0   0   0   0  0  0
 103 350  18   0   0   1  0  2
 104  52   0   0   0  11  0  0
 105 1980   0  16   3   0  0  0
 106  52   0   0   0  10  0  0
 107  92   0   6   0   7  0  0
 108 1492   0   0   0   0  0  0
 109 350  19   0   0   1  0  2
 110  52   0   0   0   9  0  0
 111 1980   0  16   3   0  0  0
 112  52   0   0   0   8  0  0
 113  92   0   6   0   7  0  0
 114 1492   0   0   0   0  0  0
 115 350  20   0   0   1  0  2
 116  52   0   0   0   5  0  0
 117 1980   0  16   3   0  0  0
 118  52   0   0   0   2  0  0
 119  92   0   6   0   7  0  0
 120 1492   0   0   0   0  0  0
 121 350  21   0   0   1  0  3
 122  52   0   0   0   2  0  0
 123 1980   0  17  16   0  0  0
 124  52   0   0   0   5  0  0
 125  92   0   6   0   7  0  0
 126 1492   0   0   0   0  0  0
 127 350  22   0   0   1  0  3
 128  52   0   0   0   8  0  0
 129 1980   0  17  16   0  0  0
 130  52   0   0   0   9  0  0
 131  92   0   6   0   7  0  0
 132 1492   0   0   0   0  0  0
 133 350  23   0   0   1  0  3
 134  52   0   0   0  10  0  0
 135 1980   0  17  16   0  0  0
 136  52   0   0   0  11  0  0
 137  92   0   6   0   7  0  0
 138 1492   0   0   0   0  0  0
 139 350  24   0   0   1  0  3
 140  52   0   0   0  12  0  0
 141 1980   0  17  16   0  0  0
 142  52   0   0   0  13  0  0
 143  92   0   6   0   7  0  0
 144 1492   0   0   0   0  0  0
 145 350  25   0   0   1  0  3
 146  52   0   0   0  14  0  0
 147 1980   0  17  16   0  0  0
 148  52   0   0   0  15  0  0
 149  92   0   6   0   7  0  0
 150 1492   0   0   0   0  0  0
 151 350  26   0   0   1  0  3
 152  52   0   0   0  15  0  0
 153 1980   0  17  16   0  0  0
 154  52   0   0   0  14  0  0
 155  92   0   6   0   7  0  0
 156 1492   0   0   0   0  0  0
 157 350  27   0   0   1  0  3
 158  52   0   0   0  13  0  0
 159 1980   0  17  16   0  0  0
 160  52   0   0   0  12  0  0
 161  92   0   6   0   7  0  0
 162 1492   0   0   0   0  0  0
 163 350  28   0   0   1  0  3
 164  52   0   0   0  11  0  0
 165 1980   0  17  16   0  0  0
 166  52   0   0   0  10  0  0
 167  92   0   6   0   7  0  0
 168 1492   0   0   0   0  0  0
 169 350  29   0   0   1  0  3
 170  52   0   0   0   9  0  0
 171 1980   0  17  16   0  0  0
 172  52   0   0   0   8  0  0
 173  92   0   6   0   7  0  0
 174 1492   0   0   0   0  0  0
 175 350  30   0   0   1  0  3
 176  52   0   0   0   5  0  0
 177 1980   0  17  16   0  0  0
 178  52   0   0   0   2  0  0
 179  92   0   6   0   7  0  0
 180 1492   0   0   0   0  0  0
 181 350  31   0   0   1  0  4
 182  52   0   0   0   2  0  0
 183 1980   0   4  17   0  0  0
 184  52   0   0   0   5  0  0
 185  92   0   6   0   7  0  0
 186 1492   0   0   0   0  0  0
 187 350  32   0   0   1  0  4
 188  52   0   0   0   8  0  0
 189 1980   0   4  17   0  0  0
 190  52   0   0   0   9  0  0
 191  92   0   6   0   7  0  0
 192 1492   0   0   0   0  0  0
 193 350  33   0   0   1  0  4
 194  52   0   0   0  10  0  0
 195 1980   0   4  17   0  0  0
 196  52   0   0   0  11  0  0
 197  92   0   6   0   7  0  0
 198 1492   0   0   0   0  0  0
 199 350  34   0   0   1  0  4
 200  52   0   0   0  12  0  0
 201 1980   0   4  17   0  0  0
 202  52   0   0   0  13  0  0
 203  92   0   6   0   7  0  0
 204 1492   0   0   0   0  0  0
 205 350  35   0   0   1  0  4
 206  52   0   0   0  14  0  0
 207 1980   0   4  17   0  0  0
 208  52   0   0   0  15  0  0
 209  92   0   6   0   7  0  0
 210 1492   0   0   0   0  0  0
 211 350  36   0   0   1  0  4
 212  52   0   0   0  15  0  0
 213 1980   0   4  17   0  0  0
 214  52   0   0   0  14  0  0
 215  92   0   6   0   7  0  0
 216 1492   0   0   0   0  0  0
 217 350  37   0   0   1  0  4
 218  52   0   0   0  13  0  0
 219 1980   0   4  17   0  0  0
 220  52   0   0   0  12  0  0
 221  92   0   6   0   7  0  0
 222 1492   0   0   0   0  0  0
 223 350  38   0   0   1  0  4
 224  52   0   0   0  11  0  0
 225 1980   0   4  17   0  0  0
 226  52   0   0   0  10  0  0
 227  92   0   6   0   7  0  0
 228 1492   0   0   0   0  0  0
 229 350  39   0   0   1  0  4
 230  52   0   0   0   9  0  0
 231 1980   0   4  17   0  0  0
 232  52   0   0   0   8  0  0
 233  92   0   6   0   7  0  0
 234 1492   0   0   0   0  0  0
 235 350  40   0   0   1  0  4
 236  52   0   0   0   5  0  0
 237 1980   0   4  17   0  0  0
 238  52   0   0   0   2  0  0
 239  92   0   6   0   7  0  0
 240 1492   0   0   0   0  0  0
 241 350  41   0   0   1  0  1
 242  52   0   0   0   2  0  0
 243 1980   0   3   4   0  0  0
 244  52   0   0   0   5  0  0
 245  92   0   6   0   7  0  0
 246 1492   0   0   0   0  0  0
 247 350  42   0   0   1  0  1
 248  52   0   0   0   8  0  0
 249 1980   0   3   4   0  0  0
 250  52   0   0   0   9  0  0
 251  92   0   6   0   7  0  0
 252 1492   0   0   0   0  0  0
 253 350  43   0   0   1  0  1
 254  52   0   0   0  10  0  0
 255 1980   0   3   4   0  0  0
 256  52   0   0   0  11  0  0
 257  92   0   6   0   7  0  0
 258 1492   0   0   0   0  0  0
 259 350  44   0   0   1  0  1
 260  52   0   0   0  12  0  0
 261 1980   0   3   4   0  0  0
 262  52   0   0   0  13  0  0
 263  92   0   6   0   7  0  0
 264 1492   0   0   0   0  0  0
 265 350  45   0   0   1  0  1
 266  52   0   0   0  14  0  0
 267 1980   0   3   4   0  0  0
 268  52   0   0   0  15  0  0
 269  92   0   6   0   7  0  0
 270 1492   0   0   0   0  0  0
 271 350  46   0   0   1  0  1
 272  52   0   0   0  15  0  0
 273 1980   0   3   4   0  0  0
 274  52   0   0   0  14  0  0
 275  92   0   6   0   7  0  0
 276 1492   0   0   0   0  0  0
 277 350  47   0   0   1  0  1
 278  52   0   0   0  13  0  0
 279 1980   0   3   4   0  0  0
 280  52   0   0   0  12  0  0
 281  92   0   6   0   7  0  0
 282 1492   0   0   0   0  0  0
 283 350  48   0   0   1  0  1
 284  52   0   0   0  11  0  0
 285 1980   0   3   4   0  0  0
 286  52   0   0   0  10  0  0
 287  92   0   6   0   7  0  0
 288 1492   0   0   0   0  0  0
 289 350  49   0   0   1  0  1
 290  52   0   0   0   9  0  0
 291 1980   0   3   4   0  0  0
 292  52   0   0   0   8  0  0
 293  92   0   6   0   7  0  0
 294 1492   0   0   0   0  0  0
 295 350  50   0   0   1  0  1
 296  52   0   0   0   5  0  0
 297 1980   0   3   4   0  0  0
 298  52   0   0   0   2  0  0
 299  92   0   6   0   7  0  0
 300 1492   0   0   0   0  0  0
 301 350  51   0   0   1  0  2
 302  52   0   0   0   2  0  0
 303 1980   0  16   3   0  0  0
 304  52   0   0   0   5  0  0
 305  92   0   6   0   7  0  0
 306 1492   0   0   0   0  0  0
 307 350  52   0   0   1  0  2
 308  52   0   0   0   8  0  0
[RF]
1      55.8278 1 2 0 250 0 2.04204
2      55.8278 1 2 0 250 0 4.08407
3      55.8278 1 2 0 250 0 6.12611
4      55.8278 1 2 0 250 0 8.16814
5      55.8278 1 2 0 250 0 10.2102
6      55.8278 1 2 0 250 0 12.2522
7      55.8278 1 2 0 250 0 14.2942
8      55.8278 1 2 0 250 0 16.3363
9      55.8278 1 2 0 250 0 18.3783
10      55.8278 1 2 0 250 0 20.4204
11      55.8278 1 2 0 250 0 22.4624
12      55.8278 1 2 0 250 0 24.5044
13      55.8278 1 2 0 250 0 26.5465
14      55.8278 1 2 0 250 0 28.5885
15      55.8278 1 2 0 250 0 30.6305
16      55.8278 1 2 0 250 0 32.6726
17      55.8278 1 2 0 250 0 34.7146
18      55.8278 1 2 0 250 0 36.7566
19      55.8278 1 2 0 250 0 38.7987
20      55.8278 1 2 0 250 0 40.8407
21      55.8278 1 2 0 250 0 42.8827
22      55.8278 1 2 0 250 0 44.9248
23      55.8278 1 2 0 250 0 46.9668
24      55.8278 1 2 0 250 0 49.0088
25      55.8278 1 2 0 250 0 51.0509
26      55.8278 1 2 0 250 0 53.0929
27      55.8278 1 2 0 250 0 55.135
28      55.8278 1 2 0 250 0 57.177
29      55.8278 1 2 0 250 0 59.219
30      55.8278 1 2 0 250 0 61.2611
31      55.8278 1 2 0 250 0 63.3031
32      55.8278 1 2 0 250 0 65.3451
33      55.8278 1 2 0 250 0 67.3872
34      55.8278 1 2 0 250 0 69.4292
35      55.8278 1 2 0 250 0 71.4712
36      55.8278 1 2 0 250 0 73.5133
37      55.8278 1 2 0 250 0 75.5553
38      55.8278 1 2 0 250 0 77.5973
39      55.8278 1 2 0 250 0 79.6394
40      55.8278 1 2 0 250 0 81.6814
41      55.8278 1 2 0 250 0 83.7234
42      55.8278 1 2 0 250 0 85.7655
43      55.8278 1 2 0 250 0 87.8075
44      55.8278 1 2 0 250 0 89.8495
45      55.8278 1 2 0 250 0 91.8916
46      55.8278 1 2 0 250 0 93.9336
47      55.8278 1 2 0 250 0 95.9757
48      55.8278 1 2 0 250 0 98.0177
49      55.8278 1 2 0 250 0 100.06
50      55.8278 1 2 0 250 0 102.102
51      55.8278 1 2 0 250 0 104.144
52      55.8278 1 2 0 250 0 106.186
53      55.8278 1 2 0 250 0 108.228
54      55.8278 1 2 0 250 0 110.27
55      55.8278 1 2 0 250 0 112.312
56      55.8278 1 2 0 250 0 114.354
57      55.8278 1 2 0 250 0 116.396
58      55.8278 1 2 0 250 0 118.438
59      55.8278 1 2 0 250 0 120.48
60      55.8278 1 2 0 250 0 122.522
61      55.8278 1 2 0 250 0 124.564
62      55.8278 1 2 0 250 0 126.606
63      55.8278 1 2 0 250 0 128.648
64      55.8278 1 2 0 250 0 130.69
65      55.8278 1 2 0 250 0 132.732
66      55.8278 1 2 0 250 0 134.774
67      55.8278 1 2 0 250 0 136.816
68      55.8278 1 2 0 250 0 138.858
69      55.8278 1 2 0 250 0 140.9
70      55.8278 1 2 0 250 0 142.942
71      55.8278 1 2 0 250 0 144.985
72      55.8278 1 2 0 250 0 147.027
73      55.8278 1 2 0 250 0 149.069
74      55.8278 1 2 0 250 0 151.111
75      55.8278 1 2 0 250 0 153.153
76      55.8278 1 2 0 250 0 155.195
77      55.8278 1 2 0 250 0 157.237
78      55.8278 1 2 0 250 0 159.279
79      55.8278 1 2 0 250 0 161.321
80      55.8278 1 2 0 250 0 163.363
81      55.8278 1 2 0 250 0 165.405
82      55.8278 1 2 0 250 0 167.447
83      55.8278 1 2 0 250 0 169.489
84      55.8278 1 2 0 250 0 171.531
85      55.8278 1 2 0 250 0 173.573
86      55.8278 1 2 0 250 0 175.615
87      55.8278 1 2 0 250 0 177.657
88      55.8278 1 2 0 250 0 179.699
89      55.8278 1 2 0 250 0 181.741
90      55.8278 1 2 0 250 0 183.783
91      55.8278 1 2 0 250 0 185.825
92      55.8278 1 2 0 250 0 187.867
93      55.8278 1 2 0 250 0 189.909
94      55.8278 1 2 0 250 0 191.951
95      55.8278 1 2 0 250 0 193.993
96      55.8278 1 2 0 250 0 196.035
97      55.8278 1 2 0 250 0 198.077
98      55.8278 1 2 0 250 0 200.119
99      55.8278 1 2 0 250 0 202.161
100      55.8278 1 2 0 250 0 204.204
101      55.8278 1 2 0 250 0 206.246
102      55.8278 1 2 0 250 0 208.288
103      55.8278 1 2 0 250 0 210.33
104      55.8278 1 2 0 250 0 212.372
105      55.8278 1 2 0 250 0 214.414
106      55.8278 1 2 0 250 0 216.456
107      55.8278 1 2 0 250 0 218.498
108      55.8278 1 2 0 250 0 220.54
109      55.8278 1 2 0 250 0 222.582
110      55.8278 1 2 0 250 0 224.624
111      55.8278 1 2 0 250 0 226.666
112      55.8278 1 2 0 250 0 228.708
113      55.8278 1 2 0 250 0 230.75
114      55.8278 1 2 0 250 0 232.792
115      55.8278 1 2 0 250 0 234.834
116      55.8278 1 2 0 250 0 236.876
117      55.8278 1 2 0 250 0 238.918
118      55.8278 1 2 0 250 0 240.96
119      55.8278 1 2 0 250 0 243.002
120      55.8278 1 2 0 250 0 245.044
121      55.8278 1 2 0 250 0 247.086
122      55.8278 1 2 0 250 0 249.128
123      55.8278 1 2 0 250 0 251.17
124      55.8278 1 2 0 250 0 253.212
125      55.8278 1 2 0 250 0 255.254
126      55.8278 1 2 0 250 0 257.296
127      55.8278 1 2 0 250 0 259.338
128      55.8278 1 2 0 250 0 261.381
129      55.8278 1 2 0 250 0 263.423
130      55.8278 1 2 0 250 0 265.465
131      55.8278 1 2 0 250 0 267.507
132      55.8278 1 2 0 250 0 269.549
133      55.8278 1 2 0 250 0 271.591
134      55.8278 1 2 0 250 0 273.633
135      55.8278 1 2 0 250 0 275.675
136      55.8278 1 2 0 250 0 277.717
137      55.8278 1 2 0 250 0 279.759
138      55.8278 1 2 0 250 0 281.801
139      55.8278 1 2 0 250 0 283.843
140      55.8278 1 2 0 250 0 285.885
141      55.8278 1 2 0 250 0 287.927
142      55.8278 1 2 0 250 0 289.969
143      55.8278 1 2 0 250 0 292.011
144      55.8278 1 2 0 250 0 294.053
145      55.8278 1 2 0 250 0 296.095
146      55.8278 1 2 0 250 0 298.137
147      55.8278 1 2 0 250 0 300.179
148      55.8278 1 2 0 250 0 302.221
149      55.8278 1 2 0 250 0 304.263
150      55.8278 1 2 0 250 0 306.305
151      55.8278 1 2 0 250 0 308.347
152      55.8278 1 2 0 250 0 310.389
153      55.8278 1 2 0 250 0 312.431
154      55.8278 1 2 0 250 0 314.473
155      55.8278 1 2 0 250 0 316.515
156      55.8278 1 2 0 250 0 318.557
157      55.8278 1 2 0 250 0 320.6
158      55.8278 1 2 0 250 0 322.642
159      55.8278 1 2 0 250 0 324.684
160      55.8278 1 2 0 250 0 326.726
161      55.8278 1 2 0 250 0 328.768
162      55.8278 1 2 0 250 0 330.81
163      55.8278 1 2 0 250 0 332.852
164      55.8278 1 2 0 250 0 334.894
165      55.8278 1 2 0 250 0 336.936
166      55.8278 1 2 0 250 0 338.978
167      55.8278 1 2 0 250 0 341.02
168      55.8278 1 2 0 250 0 343.062
169      55.8278 1 2 0 250 0 345.104
170      55.8278 1 2 0 250 0 347.146
171      55.8278 1 2 0 250 0 349.188
172      55.8278 1 2 0 250 0 351.23
173      55.8278 1 2 0 250 0 353.272
174      55.8278 1 2 0 250 0 355.314
175      55.8278 1 2 0 250 0 357.356
176      55.8278 1 2 0 250 0 359.398
177      55.8278 1 2 0 250 0 361.44
178      55.8278 1 2 0 250 0 363.482
179      55.8278 1 2 0 250 0 365.524
180      55.8278 1 2 0 250 0 367.566
181      55.8278 1 2 0 250 0 369.608
182      55.8278 1 2 0 250 0 371.65
183      55.8278 1 2 0 250 0 373.692
184      55.8278 1 2 0 250 0 375.734
185      55.8278 1 2 0 250 0 377.777
186      55.8278 1 2 0 250 0 379.819
187      55.8278 1 2 0 250 0 381.861
188      55.8278 1 2 0 250 0 383.903
189      55.8278 1 2 0 250 0 385.945
190      55.8278 1 2 0 250 0 387.987
191      55.8278 1 2 0 250 0 390.029
192      55.8278 1 2 0 250 0 392.071
193      55.8278 1 2 0 250 0 394.113
194      55.8278 1 2 0 250 0 396.155
195      55.8278 1 2 0 250 0 398.197
196      55.8278 1 2 0 250 0 400.239
197      55.8278 1 2 0 250 0 402.281
198      55.8278 1 2 0 250 0 404.323
199      55.8278 1 2 0 250 0 406.365
200      55.8278 1 2 0 250 0 408.407
201      55.8278 1 2 0 250 0 410.449
202      55.8278 1 2 0 250 0 412.491
203      55.8278 1 2 0 250 0 414.533
204      55.8278 1 2 0 250 0 416.575
205      55.8278 1 2 0 250 0 418.617
206      55.8278 1 2 0 250 0 420.659
207      55.8278 1 2 0 250 0 422.701
208      55.8278 1 2 0 250 0 424.743
209      55.8278 1 2 0 250 0 426.785
210      55.8278 1 2 0 250 0 428.827
211      55.8278 1 2 0 250 0 430.869
212      55.8278 1 2 0 250 0 432.911
213      55.8278 1 2 0 250 0 434.954
214      55.8278 1 2 0 250 0 436.996
215      55.8278 1 2 0 250 0 439.038
216      55.8278 1 2 0 250 0 441.08
217      55.8278 1 2 0 250 0 443.122
218      55.8278 1 2 0 250 0 445.164
219      55.8278 1 2 0 250 0 447.206
220      55.8278 1 2 0 250 0 449.248
221      55.8278 1 2 0 250 0 451.29
222      55.8278 1 2 0 250 0 453.332
223      55.8278 1 2 0 250 0 455.374
224      55.8278 1 2 0 250 0 457.416
225      55.8278 1 2 0 250 0 459.458
226      55.8278 1 2 0 250 0 461.5
227      55.8278 1 2 0 250 0 463.542
228      55.8278 1 2 0 250 0 465.584
229      55.8278 1 2 0 250 0 467.626
230      55.8278 1 2 0 250 0 469.668
231      55.8278 1 2 0 250 0 471.71
232      55.8278 1 2 0 250 0 473.752
233      55.8278 1 2 0 250 0 475.794
234      55.8278 1 2 0 250 0 477.836
235      55.8278 1 2 0 250 0 479.878
236      55.8278 1 2 0 250 0 481.92
237      55.8278 1 2 0 250 0 483.962
238      55.8278 1 2 0 250 0 486.004
239      55.8278 1 2 0 250 0 488.046
240      55.8278 1 2 0 250 0 490.088
241      55.8278 1 2 0 250 0 492.13
242      55.8278 1 2 0 250 0 494.173
243      55.8278 1 2 0 250 0 496.215
244      55.8278 1 2 0 250 0 498.257
245      55.8278 1 2 0 250 0 500.299
246      55.8278 1 2 0 250 0 502.341
247      55.8278 1 2 0 250 0 504.383
248      55.8278 1 2 0 250 0 506.425
249      55.8278 1 2 0 250 0 508.467
250      55.8278 1 2 0 250 0 510.509
251      55.8278 1 2 0 250 0 512.551
252      55.8278 1 2 0 250 0 514.593
253      55.8278 1 2 0 250 0 516.635
254      55.8278 1 2 0 250 0 518.677
255      55.8278 1 2 0 250 0 520.719
256      55.8278 1 2 0 250 0 522.761
257      55.8278 1 2 0 250 0 524.803
258      55.8278 1 2 0 250 0 526.845
259      55.8278 1 2 0 250 0 528.887
260      55.8278 1 2 0 250 0 530.929
261      55.8278 1 2 0 250 0 532.971
262      55.8278 1 2 0 250 0 535.013
263      55.8278 1 2 0 250 0 537.055
264      55.8278 1 2 0 250 0 539.097
265      55.8278 1 2 0 250 0 541.139
266      55.8278 1 2 0 250 0 543.181
267      55.8278 1 2 0 250 0 545.223
268      55.8278 1 2 0 250 0 547.265
269      55.8278 1 2 0 250 0 549.307
270      55.8278 1 2 0 250 0 551.35
271      55.8278 1 2 0 250 0 553.392
272      55.8278 1 2 0 250 0 555.434
273      55.8278 1 2 0 250 0 557.476
274      55.8278 1 2 0 250 0 559.518
275      55.8278 1 2 0 250 0 561.56
276      55.8278 1 2 0 250 0 563.602
277      55.8278 1 2 0 250 0 565.644
278      55.8278 1 2 0 250 0 567.686
279      55.8278 1 2 0 250 0 569.728
280      55.8278 1 2 0 250 0 571.77
281      55.8278 1 2 0 250 0 573.812
282      55.8278 1 2 0 250 0 575.854
283      55.8278 1 2 0 250 0 577.896
284      55.8278 1 2 0 250 0 579.938
285      55.8278 1 2 0 250 0 581.98
286      55.8278 1 2 0 250 0 584.022
287      55.8278 1 2 0 250 0 586.064
288      55.8278 1 2 0 250 0 588.106
289      55.8278 1 2 0 250 0 590.148
290      55.8278 1 2 0 250 0 592.19
291      55.8278 1 2 0 250 0 594.232
292      55.8278 1 2 0 250 0 596.274
293      55.8278 1 2 0 250 0 598.316
294      55.8278 1 2 0 250 0 600.358
295      55.8278 1 2 0 250 0 602.4
296      55.8278 1 2 0 250 0 604.442
297      55.8278 1 2 0 250 0 606.484
298      55.8278 1 2 0 250 0 608.526
299      55.8278 1 2 0 250 0 610.569
300      55.8278 1 2 0 250 0 612.611
301      55.8278 1 2 0 250 0 614.653
302      55.8278 1 2 0 250 0 616.695
303      55.8278 1 2 0 250 0 618.737
304      55.8278 1 2 0 250 0 620.779
305      55.8278 1 2 0 250 0 622.821
306      55.8278 1 2 0 250 0 624.863
307      55.8278 1 2 0 250 0 626.905
308      55.8278 1 2 0 250 0 628.947
309      55.8278 1 2 0 250 0 630.989
310      55.8278 1 2 0 250 0 633.031
311      55.8278 1 2 0 250 0 635.073
312      55.8278 1 2 0 250 0 637.115
313      55.8278 1 2 0 250 0 639.157
314      55.8278 1 2 0 250 0 641.199
315      55.8278 1 2 0 250 0 643.241
316      55.8278 1 2 0 250 0 645.283
317      55.8278 1 2 0 250 0 647.325
318      55.8278 1 2 0 250 0 649.367
319      55.8278 1 2 0 250 0 651.409
320      55.8278 1 2 0 250 0 653.451
321      55.8278 1 2 0 250 0 655.493
322      55.8278 1 2 0 250 0 657.535
323      55.8278 1 2 0 250 0 659.577
324      55.8278 1 2 0 250 0 661.619
325      55.8278 1 2 0 250 0 663.661
326      55.8278 1 2 0 250 0 665.703
327      55.8278 1 2 0 250 0 667.746
328      55.8278 1 2 0 250 0 669.788
329      55.8278 1 2 0 250 0 671.83
330      55.8278 1 2 0 250 0 673.872
331      55.8278 1 2 0 250 0 675.914
332      55.8278 1 2 0 250 0 677.956
333      55.8278 1 2 0 250 0 679.998
334      55.8278 1 2 0 250 0 682.04
335      55.8278 1 2 0 250 0 684.082
336      55.8278 1 2 0 250 0 686.124
337      55.8278 1 2 0 250 0 688.166
338      55.8278 1 2 0 250 0 690.208
339      55.8278 1 2 0 250 0 692.25
340      55.8278 1 2 0 250 0 694.292
341      55.8278 1 2 0 250 0 696.334
342      55.8278 1 2 0 250 0 698.376
343      55.8278 1 2 0 250 0 700.418
344      55.8278 1 2 0 250 0 702.46
345      55.8278 1 2 0 250 0 704.502
346      55.8278 1 2 0 250 0 706.544
347      55.8278 1 2 0 250 0 708.586
348      55.8278 1 2 0 250 0 710.628
349      55.8278 1 2 0 250 0 712.67
350      55.8278 1 2 0 250 0 714.712
351      55.8278 1 2 0 250 0 716.754
352      55.8278 1 2 0 250 0 718.796
353      55.8278 1 2 0 250 0 720.838
354      55.8278 1 2 0 250 0 722.88
355      55.8278 1 2 0 250 0 724.923
356      55.8278 1 2 0 250 0 726.965
357      55.8278 1 2 0 250 0 729.007
358      55.8278 1 2 0 250 0 731.049
359      55.8278 1 2 0 250 0 733.091
360      55.8278 1 2 0 250 0 735.133
361      55.8278 1 2 0 250 0 737.175
362      55.8278 1 2 0 250 0 739.217
363      55.8278 1 2 0 250 0 741.259
364      55.8278 1 2 0 250 0 743.301
365      55.8278 1 2 0 250 0 745.343
366      55.8278 1 2 0 250 0 747.385
367      55.8278 1 2 0 250 0 749.427
368      55.8278 1 2 0 250 0 751.469
369      55.8278 1 2 0 250 0 753.511
370      55.8278 1 2 0 250 0 755.553
371      55.8278 1 2 0 250 0 757.595
372      55.8278 1 2 0 250 0 759.637
373      55.8278 1 2 0 250 0 761.679
374      55.8278 1 2 0 250 0 763.721
375      55.8278 1 2 0 250 0 765.763
376      55.8278 1 2 0 250 0 767.805
377      55.8278 1 2 0 250 0 769.847
378      55.8278 1 2 0 250 0 771.889
379      55.8278 1 2 0 250 0 773.931
380      55.8278 1 2 0 250 0 775.973
381      55.8278 1 2 0 250 0 778.015
382      55.8278 1 2 0 250 0 780.057
383      55.8278 1 2 0 250 0 782.099
384      55.8278 1 2 0 250 0 784.142
385      55.8278 1 2 0 250 0 786.184
386      55.8278 1 2 0 250 0 788.226
387      55.8278 1 2 0 250 0 790.268
388      55.8278 1 2 0 250 0 792.31
389      55.8278 1 2 0 250 0 794.352
390      55.8278 1 2 0 250 0 796.394
391      55.8278 1 2 0 250 0 798.436
392      55.8278 1 2 0 250 0 800.478
393      55.8278 1 2 0 250 0 802.52
394      55.8278 1 2 0 250 0 804.562
395      55.8278 1 2 0 250 0 806.604
396      55.8278 1 2 0 250 0 808.646
397      55.8278 1 2 0 250 0 810.688
398      55.8278 1 2 0 250 0 812.73
399      55.8278 1 2 0 250 0 814.772
400      55.8278 1 2 0 250 0 816.814
401      55.8278 1 2 0 250 0 818.856
402      55.8278 1 2 0 250 0 820.898
403      55.8278 1 2 0 250 0 822.94
404      55.8278 1 2 0 250 0 824.982
405      55.8278 1 2 0 250 0 827.024
406      55.8278 1 2 0 250 0 829.066
407      55.8278 1 2 0 250 0 831.108
408      55.8278 1 2 0 250 0 833.15
409      55.8278 1 2 0 250 0 835.192
410      55.8278 1 2 0 250 0 837.234
411      55.8278 1 2 0 250 0 839.276
412      55.8278 1 2 0 250 0 841.319
413      55.8278 1 2 0 250 0 843.361
414      55.8278 1 2 0 250 0 845.403
415      55.8278 1 2 0 250 0 847.445
416      55.8278 1 2 0 250 0 849.487
417      55.8278 1 2 0 250 0 851.529
418      55.8278 1 2 0 250 0 853.571
419      55.8278 1 2 0 250 0 855.613
420      55.8278 1 2 0 250 0 857.655
421      55.8278 1 2 0 250 0 859.697
422      55.8278 1 2 0 250 0 861.739
423      55.8278 1 2 0 250 0 863.781
424      55.8278 1 2 0 250 0 865.823
425      55.8278 1 2 0 250 0 867.865
426      55.8278 1 2 0 250 0 869.907
427      55.8278 1 2 0 250 0 871.949
428      55.8278 1 2 0 250 0 873.991
429      55.8278 1 2 0 250 0 876.033
430      55.8278 1 2 0 250 0 878.075
431      55.8278 1 2 0 250 0 880.117
432      55.8278 1 2 0 250 0 882.159
433      55.8278 1 2 0 250 0 884.201
434      55.8278 1 2 0 250 0 886.243
435      55.8278 1 2 0 250 0 888.285
436      55.8278 1 2 0 250 0 890.327
437      55.8278 1 2 0 250 0 892.369
438      55.8278 1 2 0 250 0 894.411
439      55.8278 1 2 0 250 0 896.453
440      55.8278 1 2 0 250 0 898.495
441      55.8278 1 2 0 250 0 900.538
442      55.8278 1 2 0 250 0 902.58
443      55.8278 1 2 0 250 0 904.622
444      55.8278 1 2 0 250 0 906.664
445      55.8278 1 2 0 250 0 908.706
446      55.8278 1 2 0 250 0 910.748
447      55.8278 1 2 0 250 0 912.79
448      55.8278 1 2 0 250 0 914.832
449      55.8278 1 2 0 250 0 916.874
450      55.8278 1 2 0 250 0 918.916
451      55.8278 1 2 0 250 0 920.958
452      55.8278 1 2 0 250 0 923
453      55.8278 1 2 0 250 0 925.042
454      55.8278 1 2 0 250 0 927.084
455      55.8278 1 2 0 250 0 929.126
456      55.8278 1 2 0 250 0 931.168
457      55.8278 1 2 0 250 0 933.21
458      55.8278 1 2 0 250 0 935.252
459      55.8278 1 2 0 250 0 937.294
460      55.8278 1 2 0 250 0 939.336
461      55.8278 1 2 0 250 0 941.378
462      55.8278 1 2 0 250 0 943.42
463      55.8278 1 2 0 250 0 945.462
464      55.8278 1 2 0 250 0 947.504
465      55.8278 1 2 0 250 0 949.546
466      55.8278 1 2 0 250 0 951.588
467      55.8278 1 2 0 250 0 953.63
468      55.8278 1 2 0 250 0 955.672
469      55.8278 1 2 0 250 0 957.715
470      55.8278 1 2 0 250 0 959.757
471      55.8278 1 2 0 250 0 961.799
472      55.8278 1 2 0 250 0 963.841
473      55.8278 1 2 0 250 0 965.883
474      55.8278 1 2 0 250 0 967.925
475      55.8278 1 2 0 250 0 969.967
476      55.8278 1 2 0 250 0 972.009
477      55.8278 1 2 0 250 0 974.051
478      55.8278 1 2 0 250 0 976.093
479      55.8278 1 2 0 250 0 978.135
480      55.8278 1 2 0 250 0 980.177

# Format of arbitrary gradients:
#   time_shape_id of 0 means default timing (stepping with grad_raster starting at 1/2 of grad_raster)
# id amplitude amp_shape_id time_shape_id delay
# ..      Hz/m       ..         ..          us
[GRADIENTS]
1      -557407 3 4 0
3   1.1015e+06 5 0 100
4  1.09286e+06 6 0 100
16 -1.09286e+06 7 0 100
17  -1.1015e+06 8 0 100

# Format of trapezoid gradients:
# id amplitude rise flat fall delay
# ..      Hz/m   us   us   us    us
[TRAP]
 2      -641026 260    0 260   0
 5       641026 260    0 260   0
 6   2.0915e+06 410  100 410   0
 7   1.8018e+06 370    0 370   0
 8      -498575 260    0 260   0
 9       498575 260    0 260   0
10      -356125 260    0 260   0
11       356125 260    0 260   0
12      -213675 260    0 260   0
13       213675 260    0 260   0
14     -71225.1 260    0 260   0
15      71225.1 260    0 260   0

# Format of ADC events:
# id num dwell delay freq phase
# ..  ..    ns    us   Hz   rad
[ADC]
1 1712 10000 100 0 165.405
2 1712 10000 100 0 167.447
3 1712 10000 100 0 169.489
4 1712 10000 100 0 171.531
5 1712 10000 100 0 173.573
6 1712 10000 100 0 175.615
7 1712 10000 100 0 177.657
8 1712 10000 100 0 179.699
9 1712 10000 100 0 181.741
10 1712 10000 100 0 183.783
11 1712 10000 100 0 185.825
12 1712 10000 100 0 187.867
13 1712 10000 100 0 189.909
14 1712 10000 100 0 191.951
15 1712 10000 100 0 193.993
16 1712 10000 100 0 196.035
17 1712 10000 100 0 198.077
18 1712 10000 100 0 200.119
19 1712 10000 100 0 202.161
20 1712 10000 100 0 204.204
21 1712 10000 100 0 206.246
22 1712 10000 100 0 208.288
23 1712 10000 100 0 210.33
24 1712 10000 100 0 212.372
25 1712 10000 100 0 214.414
26 1712 10000 100 0 216.456
27 1712 10000 100 0 218.498
28 1712 10000 100 0 220.54
29 1712 10000 100 0 222.582
30 1712 10000 100 0 224.624
31 1712 10000 100 0 226.666
32 1712 10000 100 0 228.708
33 1712 10000 100 0 230.75
34 1712 10000 100 0 232.792
35 1712 10000 100 0 234.834
36 1712 10000 100 0 236.876
37 1712 10000 100 0 238.918
38 1712 10000 100 0 240.96
39 1712 10000 100 0 243.002
40 1712 10000 100 0 245.044
41 1712 10000 100 0 247.086
42 1712 10000 100 0 249.128
43 1712 10000 100 0 251.17
44 1712 10000 100 0 253.212
45 1712 10000 100 0 255.254
46 1712 10000 100 0 257.296
47 1712 10000 100 0 259.338
48 1712 10000 100 0 261.381
49 1712 10000 100 0 263.423
50 1712 10000 100 0 265.465
51 1712 10000 100 0 267.507
