# Pulseq sequence file
# Created by MATLAB mr toolbox

[VERSION]
major 1
minor 4
revision 1

[DEFINITIONS]
AdcRasterTime 4e-06 
BlockDurationRaster 4e-06 
GradientRasterTime 4e-06 
RadiofrequencyRasterTime 4e-06 
TotalDuration 53.5986 

# Format of blocks:
# NUM DUR RF  GX  GY  GZ  ADC  EXT
[BLOCKS]
   1 854   1   0   0   1  0  1
   2 1052   2   0   0   2  0  0
   3 2521   0   3   4   0  0  0
   4 815   0   5   0   5  0  0
   5 11000   0   0   0   0  0  0
   6 854   1   0   0   1  0  1
   7 1052   3   0   0   2  0  0
   8 2521   0   3   4   0  0  0
   9 815   0   5   0   5  0  0
  10 11000   0   0   0   0  0  0
  11 854   1   0   0   1  0  1
  12 1052   4   0   0   2  0  0
  13 2521   0   3   4   0  0  0
  14 815   0   5   0   5  0  0
  15 11000   0   0   0   0  0  0
  16 854   1   0   0   1  0  1
  17 1052   5   0   0   2  0  0
  18 2521   0   3   4   0  0  0
  19 815   0   5   0   5  0  0
  20 11000   0   0   0   0  0  0
  21 854   1   0   0   1  0  1
  22 1052   6   0   0   2  0  0
  23 2521   0   3   4   0  0  0
  24 815   0   5   0   5  0  0
  25 11000   0   0   0   0  0  0
  26 854   1   0   0   1  0  1
  27 1052   7   0   0   2  0  0
  28 2521   0   3   4   0  0  0
  29 815   0   5   0   5  0  0
  30 11000   0   0   0   0  0  0
  31 854   1   0   0   1  0  1
  32 1052   8   0   0   2  0  0
  33 2521   0   3   4   0  0  0
  34 815   0   5   0   5  0  0
  35 11000   0   0   0   0  0  0
  36 854   1   0   0   1  0  1
  37 1052   9   0   0   2  0  0
  38 2521   0   3   4   0  0  0
  39 815   0   5   0   5  0  0
  40 11000   0   0   0   0  0  0
  41 854   1   0   0   1  0  1
  42 1052  10   0   0   2  0  0
  43 2521   0   3   4   0  0  0
  44 815   0   5   0   5  0  0
  45 11000   0   0   0   0  0  0
  46 854   1   0   0   1  0  1
  47 1052  11   0   0   2  0  0
  48 2521   0   3   4   0  0  0
  49 815   0   5   0   5  0  0
  50 11000   0   0   0   0  0  0
  51 854   1   0   0   1  0  1
  52 1052  12   0   0   2  0  0
  53 2521   0   3   4   0  0  0
  54 815   0   5   0   5  0  0
  55 11000   0   0   0   0  0  0
  56 854   1   0   0   1  0  1
  57 1052  13   0   0   2  0  0
  58 2521   0   3   4   0  0  0
  59 815   0   5   0   5  0  0
  60 11000   0   0   0   0  0  0
  61 854   1   0   0   1  0  1
  62 1052  14   0   0   2  0  0
  63 2521   0   3   4   0  0  0
  64 815   0   5   0   5  0  0
  65 11000   0   0   0   0  0  0
  66 854   1   0   0   1  0  1
  67 1052  15   0   0   2  0  0
  68 2521   0   3   4   0  0  0
  69 815   0   5   0   5  0  0
  70 11000   0   0   0   0  0  0
  71 854   1   0   0   1  0  1
  72 1052  16   0   0   2  0  0
  73 2521   0   3   4   0  0  0
  74 815   0   5   0   5  0  0
  75 11000   0   0   0   0  0  0
  76 854   1   0   0   1  0  1
  77 1052  17   0   0   2  0  0
  78 2521   0   3   4   0  0  0
  79 815   0   5   0   5  0  0
  80 11000   0   0   0   0  0  0
  81 854   1   0   0   1  0  1
  82 1052  18   0   0   2  0  0
  83 2521   0   3   4   0  0  0
  84 815   0   5   0   5  0  0
  85 11000   0   0   0   0  0  0
  86 854   1   0   0   1  0  1
  87 1052  19   0   0   2  0  0
  88 2521   0   3   4   0  0  0
  89 815   0   5   0   5  0  0
  90 11000   0   0   0   0  0  0
  91 854   1   0   0   1  0  1
  92 1052  20   0   0   2  0  0
  93 2521   0   3   4   0  0  0
  94 815   0   5   0   5  0  0
  95 11000   0   0   0   0  0  0
  96 854   1   0   0   1  0  1
  97 1052  21   0   0   2  0  0
  98 2521   0   3   4   0  0  0
  99 815   0   5   0   5  0  0
 100 11000   0   0   0   0  0  0
 101 854   1   0   0   1  0  1
 102 1052  22   0   0   2  0  0
 103 2521   0   3   4   0  0  0
 104 815   0   5   0   5  0  0
 105 11000   0   0   0   0  0  0
 106 854   1   0   0   1  0  1
 107 1052  23   0   0   2  0  0
 108 2521   0   3   4   0  0  0
 109 815   0   5   0   5  0  0
 110 11000   0   0   0   0  0  0
 111 854   1   0   0   1  0  1
 112 1052  24   0   0   2  0  0
 113 2521   0   3   4   0  0  0
 114 815   0   5   0   5  0  0
 115 11000   0   0   0   0  0  0
 116 854   1   0   0   1  0  1
 117 1052  25   0   0   2  0  0
 118 2521   0   3   4   0  0  0
 119 815   0   5   0   5  0  0
 120 11000   0   0   0   0  0  0
 121 854   1   0   0   1  0  1
 122 1052  26   0   0   2  0  0
 123 2521   0   3   4   0  0  0
 124 815   0   5   0   5  0  0
 125 11000   0   0   0   0  0  0
 126 854   1   0   0   1  0  1
 127 1052  27   0   0   2  0  0
 128 2521   0   3   4   0  0  0
 129 815   0   5   0   5  0  0
 130 11000   0   0   0   0  0  0
 131 854   1   0   0   1  0  1
 132 1052  28   0   0   2  0  0
 133 2521   0   3   4   0  0  0
 134 815   0   5   0   5  0  0
 135 11000   0   0   0   0  0  0
 136 854   1   0   0   1  0  1
 137 1052  29   0   0   2  0  0
 138 2521   0   3   4   0  0  0
 139 815   0   5   0   5  0  0
 140 11000   0   0   0   0  0  0
 141 854   1   0   0   1  0  1
 142 1052  30   0   0   2  0  0
 143 2521   0   3   4   0  0  0
 144 815   0   5   0   5  0  0
 145 11000   0   0   0   0  0  0
 146 854   1   0   0   1  0  1
 147 1052  31   0   0   2  0  0
 148 2521   0   3   4   0  0  0
 149 815   0   5   0   5  0  0
 150 11000   0   0   0   0  0  0
 151 854   1   0   0   1  0  1
 152 1052  32   0   0   2  0  0
 153 2521   0   3   4   0  0  0
 154 815   0   5   0   5  0  0
 155 11000   0   0   0   0  0  0
 156 854   1   0   0   1  0  1
 157 1052  33   0   0   2  0  0
 158 2521   0   3   4   0  0  0
 159 815   0   5   0   5  0  0
 160 11000   0   0   0   0  0  0
 161 854   1   0   0   1  0  1
 162 1052  34   0   0   2  0  0
 163 2521   0   3   4   0  0  0
 164 815   0   5   0   5  0  0
 165 11000   0   0   0   0  0  0
 166 854   1   0   0   1  0  1
 167 1052  35   0   0   2  0  0
 168 2521   0   3   4   0  0  0
 169 815   0   5   0   5  0  0
 170 11000   0   0   0   0  0  0
 171 854   1   0   0   1  0  1
 172 1052  36   0   0   2  0  0
 173 2521   0   3   4   0  0  0
 174 815   0   5   0   5  0  0
 175 11000   0   0   0   0  0  0
 176 854   1   0   0   1  0  1
 177 1052  37   0   0   2  0  0
 178 2521   0   3   4   0  0  0
 179 815   0   5   0   5  0  0
 180 11000   0   0   0   0  0  0
 181 854   1   0   0   1  0  1
 182 1052  38   0   0   2  0  0
 183 2521   0   3   4   0  0  0
 184 815   0   5   0   5  0  0
 185 11000   0   0   0   0  0  0
 186 854   1   0   0   1  0  1
 187 1052  39   0   0   2  0  0
 188 2521   0   3   4   0  0  0
 189 815   0   5   0   5  0  0
 190 11000   0   0   0   0  0  0
 191 854   1   0   0   1  0  1
 192 1052  40   0   0   2  0  0
 193 2521   0   3   4   0  0  0
 194 815   0   5   0   5  0  0
 195 11000   0   0   0   0  0  0
 196 854   1   0   0   1  0  1
 197 1052  41   0   0   2  0  0
 198 2521   0   3   4   0  0  0
 199 815   0   5   0   5  0  0
 200 11000   0   0   0   0  0  0
 201 854   1   0   0   1  0  1
 202 1052  42   0   0   2  0  0
 203 2521   0   3   4   0  0  0
 204 815   0   5   0   5  0  0
 205 11000   0   0   0   0  0  0
 206 854   1   0   0   1  0  1
 207 1052  43   0   0   2  0  0
 208 2521   0   3   4   0  0  0
 209 815   0   5   0   5  0  0
 210 11000   0   0   0   0  0  0
 211 854   1   0   0   1  0  1
 212 1052  44   0   0   2  0  0
 213 2521   0   3   4   0  0  0
 214 815   0   5   0   5  0  0
 215 11000   0   0   0   0  0  0
 216 854   1   0   0   1  0  1
 217 1052  45   0   0   2  0  0
 218 2521   0   3   4   0  0  0
 219 815   0   5   0   5  0  0
 220 11000   0   0   0   0  0  0
 221 854   1   0   0   1  0  1
 222 1052  46   0   0   2  0  0
 223 2521   0   3   4   0  0  0
 224 815   0   5   0   5  0  0
 225 11000   0   0   0   0  0  0
 226 854   1   0   0   1  0  1
 227 1052  47   0   0   2  0  0
 228 2521   0   3   4   0  0  0
 229 815   0   5   0   5  0  0
 230 11000   0   0   0   0  0  0
 231 854   1   0   0   1  0  1
 232 1052  48   0   0   2  0  0
 233 2521   0   3   4   0  0  0
 234 815   0   5   0   5  0  0
 235 11000   0   0   0   0  0  0
 236 854   1   0   0   1  0  1
 237 1052  49   0   0   2  0  0
 238 2521   0   3   4   0  0  0
 239 815   0   5   0   5  0  0
 240 11000   0   0   0   0  0  0
 241 854   1   0   0   1  0  1
 242 1052  50   0   0   2  0  0
 243 2521   0   3   4   0  0  0
 244 815   0   5   0   5  0  0
 245 11000   0   0   0   0  0  0
 246 854   1   0   0   1  0  1
 247 1052  51   0   0   2  0  0
 248 2521   0   3   4   0  0  0
 249 815   0   5   0   5  0  0
 250 11000   0   0   0   0  0  0
 251 854   1   0   0   1  0  1
 252 1052  52   0   0   2  0  0
 253 2521   0   3   4   0  0  0
 254 815   0   5   0   5  0  0
 255 11000   0   0   0   0  0  0
 256 854   1   0   0   1  0  1
 257 1052  53   0   0   2  0  0
 258 2521   0   3   4   0  0  0
 259 815   0   5   0   5  0  0
 260 11000   0   0   0   0  0  0
 261 854   1   0   0   1  0  1
 262 1052  54   0   0   2  0  0
 263 2521   0   3   4   0  0  0
 264 815   0   5   0   5  0  0
 265 11000   0   0   0   0  0  0
 266 854   1   0   0   1  0  1
 267 1052  55   0   0   2  0  0
 268 2521   0   3   4   0  0  0
 269 815   0   5   0   5  0  0
 270 11000   0   0   0   0  0  0
 271 854   1   0   0   1  0  1
 272 1052  56   0   0   2  0  0
 273 2521   0   3   4   0  0  0
 274 815   0   5   0   5  0  0
 275 11000   0   0   0   0  0  0
 276 854   1   0   0   1  0  1
 277 1052  57   0   0   2  0  0
 278 2521   0   3   4   0  0  0
 279 815   0   5   0   5  0  0
 280 11000   0   0   0   0  0  0
 281 854   1   0   0   1  0  1
 282 1052  58   0   0   2  0  0
 283 2521   0   3   4   0  0  0
 284 815   0   5   0   5  0  0
 285 11000   0   0   0   0  0  0
 286 854   1   0   0   1  0  1
 287 1052  59   0   0   2  0  0
 288 2521   0   3   4   0  0  0
 289 815   0   5   0   5  0  0
 290 11000   0   0   0   0  0  0
 291 854   1   0   0   1  0  1
 292 1052  60   0   0   2  0  0
 293 2521   0   3   4   0  0  0
 294 815   0   5   0   5  0  0
 295 11000   0   0   0   0  0  0
 296 854   1   0   0   1  0  1
 297 1052  61   0   0   2  0  0
 298 2521   0   3   4   0  0  0
 299 815   0   5   0   5  0  0
 300 11000   0   0   0   0  0  0
 301 854   1   0   0   1  0  1
 302 1052  62   0   0   2  0  0
 303 2521   0   3   4   0  0  0
 304 815   0   5   0   5  0  0
 305 11000   0   0   0   0  0  0
[RF]
1      297.691 1 2 0 100 -440 0
2       393.11 3 4 0 100 -18666.7 2.04204
3       393.11 3 4 0 100 -16000 4.08407
4       393.11 3 4 0 100 -13333.3 6.12611
5       393.11 3 4 0 100 -10666.7 8.16814
6       393.11 3 4 0 100 -8000 10.2102
7       393.11 3 4 0 100 -5333.33 12.2522
8       393.11 3 4 0 100 -2666.67 14.2942
9       393.11 3 4 0 100 0 16.3363
10       393.11 3 4 0 100 2666.67 18.3783
11       393.11 3 4 0 100 5333.33 20.4204
12       393.11 3 4 0 100 8000 22.4624
13       393.11 3 4 0 100 10666.7 24.5044
14       393.11 3 4 0 100 13333.3 26.5465
15       393.11 3 4 0 100 16000 28.5885
16       393.11 3 4 0 100 18666.7 30.6305
17       393.11 3 4 0 100 -18666.7 32.6726
18       393.11 3 4 0 100 -16000 34.7146
19       393.11 3 4 0 100 -13333.3 36.7566
20       393.11 3 4 0 100 -10666.7 38.7987
21       393.11 3 4 0 100 -8000 40.8407
22       393.11 3 4 0 100 -5333.33 42.8827
23       393.11 3 4 0 100 -2666.67 44.9248
24       393.11 3 4 0 100 0 46.9668
25       393.11 3 4 0 100 2666.67 49.0088
26       393.11 3 4 0 100 5333.33 51.0509
27       393.11 3 4 0 100 8000 53.0929
28       393.11 3 4 0 100 10666.7 55.135
29       393.11 3 4 0 100 13333.3 57.177
30       393.11 3 4 0 100 16000 59.219
31       393.11 3 4 0 100 18666.7 61.2611
32       393.11 3 4 0 100 -18666.7 63.3031
33       393.11 3 4 0 100 -16000 65.3451
34       393.11 3 4 0 100 -13333.3 67.3872
35       393.11 3 4 0 100 -10666.7 69.4292
36       393.11 3 4 0 100 -8000 71.4712
37       393.11 3 4 0 100 -5333.33 73.5133
38       393.11 3 4 0 100 -2666.67 75.5553
39       393.11 3 4 0 100 0 77.5973
40       393.11 3 4 0 100 2666.67 79.6394
41       393.11 3 4 0 100 5333.33 81.6814
42       393.11 3 4 0 100 8000 83.7234
43       393.11 3 4 0 100 10666.7 85.7655
44       393.11 3 4 0 100 13333.3 87.8075
45       393.11 3 4 0 100 16000 89.8495
46       393.11 3 4 0 100 18666.7 91.8916
47       393.11 3 4 0 100 -18666.7 93.9336
48       393.11 3 4 0 100 -16000 95.9757
49       393.11 3 4 0 100 -13333.3 98.0177
50       393.11 3 4 0 100 -10666.7 100.06
51       393.11 3 4 0 100 -8000 102.102
52       393.11 3 4 0 100 -5333.33 104.144
53       393.11 3 4 0 100 -2666.67 106.186
54       393.11 3 4 0 100 0 108.228
55       393.11 3 4 0 100 2666.67 110.27
56       393.11 3 4 0 100 5333.33 112.312
57       393.11 3 4 0 100 8000 114.354
58       393.11 3 4 0 100 10666.7 116.396
59       393.11 3 4 0 100 13333.3 118.438
60       393.11 3 4 0 100 16000 120.48
61       393.11 3 4 0 100 18666.7 122.522
62       393.11 3 4 0 100 -18666.7 124.564
63       393.11 3 4 0 100 -16000 126.606
64       393.11 3 4 0 100 -13333.3 128.648
65       393.11 3 4 0 100 -10666.7 130.69
66       393.11 3 4 0 100 -8000 132.732
67       393.11 3 4 0 100 -5333.33 134.774
68       393.11 3 4 0 100 -2666.67 136.816
69       393.11 3 4 0 100 0 138.858
70       393.11 3 4 0 100 2666.67 140.9
71       393.11 3 4 0 100 5333.33 142.942
72       393.11 3 4 0 100 8000 144.985
73       393.11 3 4 0 100 10666.7 147.027
74       393.11 3 4 0 100 13333.3 149.069
75       393.11 3 4 0 100 16000 151.111
76       393.11 3 4 0 100 18666.7 153.153
77       393.11 3 4 0 100 -18666.7 155.195
78       393.11 3 4 0 100 -16000 157.237
79       393.11 3 4 0 100 -13333.3 159.279
80       393.11 3 4 0 100 -10666.7 161.321
81       393.11 3 4 0 100 -8000 163.363
82       393.11 3 4 0 100 -5333.33 165.405
83       393.11 3 4 0 100 -2666.67 167.447
84       393.11 3 4 0 100 0 169.489
85       393.11 3 4 0 100 2666.67 171.531
86       393.11 3 4 0 100 5333.33 173.573
87       393.11 3 4 0 100 8000 175.615
88       393.11 3 4 0 100 10666.7 177.657
89       393.11 3 4 0 100 13333.3 179.699
90       393.11 3 4 0 100 16000 181.741
91       393.11 3 4 0 100 18666.7 183.783
92       393.11 3 4 0 100 -18666.7 185.825
93       393.11 3 4 0 100 -16000 187.867
94       393.11 3 4 0 100 -13333.3 189.909
95       393.11 3 4 0 100 -10666.7 191.951
96       393.11 3 4 0 100 -8000 193.993
97       393.11 3 4 0 100 -5333.33 196.035
98       393.11 3 4 0 100 -2666.67 198.077
99       393.11 3 4 0 100 0 200.119
100       393.11 3 4 0 100 2666.67 202.161
101       393.11 3 4 0 100 5333.33 204.204
102       393.11 3 4 0 100 8000 206.246
103       393.11 3 4 0 100 10666.7 208.288
104       393.11 3 4 0 100 13333.3 210.33
105       393.11 3 4 0 100 16000 212.372
106       393.11 3 4 0 100 18666.7 214.414
107       393.11 3 4 0 100 -18666.7 216.456
108       393.11 3 4 0 100 -16000 218.498
109       393.11 3 4 0 100 -13333.3 220.54
110       393.11 3 4 0 100 -10666.7 222.582
111       393.11 3 4 0 100 -8000 224.624
112       393.11 3 4 0 100 -5333.33 226.666
113       393.11 3 4 0 100 -2666.67 228.708
114       393.11 3 4 0 100 0 230.75
115       393.11 3 4 0 100 2666.67 232.792
116       393.11 3 4 0 100 5333.33 234.834
117       393.11 3 4 0 100 8000 236.876
118       393.11 3 4 0 100 10666.7 238.918
119       393.11 3 4 0 100 13333.3 240.96
120       393.11 3 4 0 100 16000 243.002
121       393.11 3 4 0 100 18666.7 245.044
122       393.11 3 4 0 100 -18666.7 247.086
123       393.11 3 4 0 100 -16000 249.128
124       393.11 3 4 0 100 -13333.3 251.17
125       393.11 3 4 0 100 -10666.7 253.212
126       393.11 3 4 0 100 -8000 255.254
127       393.11 3 4 0 100 -5333.33 257.296
128       393.11 3 4 0 100 -2666.67 259.338
129       393.11 3 4 0 100 0 261.381
130       393.11 3 4 0 100 2666.67 263.423
131       393.11 3 4 0 100 5333.33 265.465
132       393.11 3 4 0 100 8000 267.507
133       393.11 3 4 0 100 10666.7 269.549
134       393.11 3 4 0 100 13333.3 271.591
135       393.11 3 4 0 100 16000 273.633
136       393.11 3 4 0 100 18666.7 275.675
137       393.11 3 4 0 100 -18666.7 277.717
138       393.11 3 4 0 100 -16000 279.759
139       393.11 3 4 0 100 -13333.3 281.801
140       393.11 3 4 0 100 -10666.7 283.843
141       393.11 3 4 0 100 -8000 285.885
142       393.11 3 4 0 100 -5333.33 287.927
143       393.11 3 4 0 100 -2666.67 289.969
144       393.11 3 4 0 100 0 292.011
145       393.11 3 4 0 100 2666.67 294.053
146       393.11 3 4 0 100 5333.33 296.095
147       393.11 3 4 0 100 8000 298.137
148       393.11 3 4 0 100 10666.7 300.179
149       393.11 3 4 0 100 13333.3 302.221
150       393.11 3 4 0 100 16000 304.263
151       393.11 3 4 0 100 18666.7 306.305
152       393.11 3 4 0 100 -18666.7 308.347
153       393.11 3 4 0 100 -16000 310.389
154       393.11 3 4 0 100 -13333.3 312.431
155       393.11 3 4 0 100 -10666.7 314.473
156       393.11 3 4 0 100 -8000 316.515
157       393.11 3 4 0 100 -5333.33 318.557
158       393.11 3 4 0 100 -2666.67 320.6
159       393.11 3 4 0 100 0 322.642
160       393.11 3 4 0 100 2666.67 324.684
161       393.11 3 4 0 100 5333.33 326.726
162       393.11 3 4 0 100 8000 328.768
163       393.11 3 4 0 100 10666.7 330.81
164       393.11 3 4 0 100 13333.3 332.852
165       393.11 3 4 0 100 16000 334.894
166       393.11 3 4 0 100 18666.7 336.936
167       393.11 3 4 0 100 -18666.7 338.978
168       393.11 3 4 0 100 -16000 341.02
169       393.11 3 4 0 100 -13333.3 343.062
170       393.11 3 4 0 100 -10666.7 345.104
171       393.11 3 4 0 100 -8000 347.146
172       393.11 3 4 0 100 -5333.33 349.188
173       393.11 3 4 0 100 -2666.67 351.23
174       393.11 3 4 0 100 0 353.272
175       393.11 3 4 0 100 2666.67 355.314
176       393.11 3 4 0 100 5333.33 357.356
177       393.11 3 4 0 100 8000 359.398
178       393.11 3 4 0 100 10666.7 361.44
179       393.11 3 4 0 100 13333.3 363.482
180       393.11 3 4 0 100 16000 365.524
181       393.11 3 4 0 100 18666.7 367.566
182       393.11 3 4 0 100 -18666.7 369.608
183       393.11 3 4 0 100 -16000 371.65
184       393.11 3 4 0 100 -13333.3 373.692
185       393.11 3 4 0 100 -10666.7 375.734
186       393.11 3 4 0 100 -8000 377.777
187       393.11 3 4 0 100 -5333.33 379.819
188       393.11 3 4 0 100 -2666.67 381.861
189       393.11 3 4 0 100 0 383.903
190       393.11 3 4 0 100 2666.67 385.945
191       393.11 3 4 0 100 5333.33 387.987
192       393.11 3 4 0 100 8000 390.029
193       393.11 3 4 0 100 10666.7 392.071
194       393.11 3 4 0 100 13333.3 394.113
195       393.11 3 4 0 100 16000 396.155
196       393.11 3 4 0 100 18666.7 398.197
197       393.11 3 4 0 100 -18666.7 400.239
198       393.11 3 4 0 100 -16000 402.281
199       393.11 3 4 0 100 -13333.3 404.323
200       393.11 3 4 0 100 -10666.7 406.365
201       393.11 3 4 0 100 -8000 408.407
202       393.11 3 4 0 100 -5333.33 410.449
203       393.11 3 4 0 100 -2666.67 412.491
204       393.11 3 4 0 100 0 414.533
205       393.11 3 4 0 100 2666.67 416.575
206       393.11 3 4 0 100 5333.33 418.617
207       393.11 3 4 0 100 8000 420.659
208       393.11 3 4 0 100 10666.7 422.701
209       393.11 3 4 0 100 13333.3 424.743
210       393.11 3 4 0 100 16000 426.785
211       393.11 3 4 0 100 18666.7 428.827
212       393.11 3 4 0 100 -18666.7 430.869
213       393.11 3 4 0 100 -16000 432.911
214       393.11 3 4 0 100 -13333.3 434.954
215       393.11 3 4 0 100 -10666.7 436.996
216       393.11 3 4 0 100 -8000 439.038
217       393.11 3 4 0 100 -5333.33 441.08
218       393.11 3 4 0 100 -2666.67 443.122
219       393.11 3 4 0 100 0 445.164
220       393.11 3 4 0 100 2666.67 447.206
221       393.11 3 4 0 100 5333.33 449.248
222       393.11 3 4 0 100 8000 451.29
223       393.11 3 4 0 100 10666.7 453.332
224       393.11 3 4 0 100 13333.3 455.374
225       393.11 3 4 0 100 16000 457.416
226       393.11 3 4 0 100 18666.7 459.458
227       393.11 3 4 0 100 -18666.7 461.5
228       393.11 3 4 0 100 -16000 463.542
229       393.11 3 4 0 100 -13333.3 465.584
230       393.11 3 4 0 100 -10666.7 467.626
231       393.11 3 4 0 100 -8000 469.668
232       393.11 3 4 0 100 -5333.33 471.71
233       393.11 3 4 0 100 -2666.67 473.752
234       393.11 3 4 0 100 0 475.794
235       393.11 3 4 0 100 2666.67 477.836
236       393.11 3 4 0 100 5333.33 479.878
237       393.11 3 4 0 100 8000 481.92
238       393.11 3 4 0 100 10666.7 483.962
239       393.11 3 4 0 100 13333.3 486.004
240       393.11 3 4 0 100 16000 488.046
241       393.11 3 4 0 100 18666.7 490.088
242       393.11 3 4 0 100 -18666.7 492.13
243       393.11 3 4 0 100 -16000 494.173
244       393.11 3 4 0 100 -13333.3 496.215
245       393.11 3 4 0 100 -10666.7 498.257
246       393.11 3 4 0 100 -8000 500.299
247       393.11 3 4 0 100 -5333.33 502.341
248       393.11 3 4 0 100 -2666.67 504.383
249       393.11 3 4 0 100 0 506.425
250       393.11 3 4 0 100 2666.67 508.467
251       393.11 3 4 0 100 5333.33 510.509
252       393.11 3 4 0 100 8000 512.551
253       393.11 3 4 0 100 10666.7 514.593
254       393.11 3 4 0 100 13333.3 516.635
255       393.11 3 4 0 100 16000 518.677
256       393.11 3 4 0 100 18666.7 520.719
257       393.11 3 4 0 100 -18666.7 522.761
258       393.11 3 4 0 100 -16000 524.803
259       393.11 3 4 0 100 -13333.3 526.845
260       393.11 3 4 0 100 -10666.7 528.887
261       393.11 3 4 0 100 -8000 530.929
262       393.11 3 4 0 100 -5333.33 532.971
263       393.11 3 4 0 100 -2666.67 535.013
264       393.11 3 4 0 100 0 537.055
265       393.11 3 4 0 100 2666.67 539.097
266       393.11 3 4 0 100 5333.33 541.139
267       393.11 3 4 0 100 8000 543.181
268       393.11 3 4 0 100 10666.7 545.223
269       393.11 3 4 0 100 13333.3 547.265
270       393.11 3 4 0 100 16000 549.307
271       393.11 3 4 0 100 18666.7 551.35
272       393.11 3 4 0 100 -18666.7 553.392
273       393.11 3 4 0 100 -16000 555.434
274       393.11 3 4 0 100 -13333.3 557.476
275       393.11 3 4 0 100 -10666.7 559.518
276       393.11 3 4 0 100 -8000 561.56
277       393.11 3 4 0 100 -5333.33 563.602
278       393.11 3 4 0 100 -2666.67 565.644
279       393.11 3 4 0 100 0 567.686
280       393.11 3 4 0 100 2666.67 569.728
281       393.11 3 4 0 100 5333.33 571.77
282       393.11 3 4 0 100 8000 573.812
283       393.11 3 4 0 100 10666.7 575.854
284       393.11 3 4 0 100 13333.3 577.896
285       393.11 3 4 0 100 16000 579.938
286       393.11 3 4 0 100 18666.7 581.98
287       393.11 3 4 0 100 -18666.7 584.022
288       393.11 3 4 0 100 -16000 586.064
289       393.11 3 4 0 100 -13333.3 588.106
290       393.11 3 4 0 100 -10666.7 590.148
291       393.11 3 4 0 100 -8000 592.19
292       393.11 3 4 0 100 -5333.33 594.232
293       393.11 3 4 0 100 -2666.67 596.274
294       393.11 3 4 0 100 0 598.316
295       393.11 3 4 0 100 2666.67 600.358
296       393.11 3 4 0 100 5333.33 602.4
297       393.11 3 4 0 100 8000 604.442
298       393.11 3 4 0 100 10666.7 606.484
299       393.11 3 4 0 100 13333.3 608.526
300       393.11 3 4 0 100 16000 610.569
301       393.11 3 4 0 100 18666.7 612.611
302       393.11 3 4 0 100 -18666.7 614.653
303       393.11 3 4 0 100 -16000 616.695
304       393.11 3 4 0 100 -13333.3 618.737
305       393.11 3 4 0 100 -10666.7 620.779
306       393.11 3 4 0 100 -8000 622.821
307       393.11 3 4 0 100 -5333.33 624.863
308       393.11 3 4 0 100 -2666.67 626.905
309       393.11 3 4 0 100 0 628.947
310       393.11 3 4 0 100 2666.67 630.989
311       393.11 3 4 0 100 5333.33 633.031
312       393.11 3 4 0 100 8000 635.073
313       393.11 3 4 0 100 10666.7 637.115
314       393.11 3 4 0 100 13333.3 639.157
315       393.11 3 4 0 100 16000 641.199
316       393.11 3 4 0 100 18666.7 643.241
317       393.11 3 4 0 100 -18666.7 645.283
318       393.11 3 4 0 100 -16000 647.325
319       393.11 3 4 0 100 -13333.3 649.367
320       393.11 3 4 0 100 -10666.7 651.409
321       393.11 3 4 0 100 -8000 653.451
322       393.11 3 4 0 100 -5333.33 655.493
323       393.11 3 4 0 100 -2666.67 657.535
324       393.11 3 4 0 100 0 659.577
325       393.11 3 4 0 100 2666.67 661.619
326       393.11 3 4 0 100 5333.33 663.661
327       393.11 3 4 0 100 8000 665.703
328       393.11 3 4 0 100 10666.7 667.746
329       393.11 3 4 0 100 13333.3 669.788
330       393.11 3 4 0 100 16000 671.83
331       393.11 3 4 0 100 18666.7 673.872
332       393.11 3 4 0 100 -18666.7 675.914
333       393.11 3 4 0 100 -16000 677.956
334       393.11 3 4 0 100 -13333.3 679.998
335       393.11 3 4 0 100 -10666.7 682.04
336       393.11 3 4 0 100 -8000 684.082
337       393.11 3 4 0 100 -5333.33 686.124
338       393.11 3 4 0 100 -2666.67 688.166
339       393.11 3 4 0 100 0 690.208
340       393.11 3 4 0 100 2666.67 692.25
341       393.11 3 4 0 100 5333.33 694.292
342       393.11 3 4 0 100 8000 696.334
343       393.11 3 4 0 100 10666.7 698.376
344       393.11 3 4 0 100 13333.3 700.418
345       393.11 3 4 0 100 16000 702.46
346       393.11 3 4 0 100 18666.7 704.502
347       393.11 3 4 0 100 -18666.7 706.544
348       393.11 3 4 0 100 -16000 708.586
349       393.11 3 4 0 100 -13333.3 710.628
350       393.11 3 4 0 100 -10666.7 712.67
351       393.11 3 4 0 100 -8000 714.712
352       393.11 3 4 0 100 -5333.33 716.754
353       393.11 3 4 0 100 -2666.67 718.796
354       393.11 3 4 0 100 0 720.838
355       393.11 3 4 0 100 2666.67 722.88
356       393.11 3 4 0 100 5333.33 724.923
357       393.11 3 4 0 100 8000 726.965
358       393.11 3 4 0 100 10666.7 729.007
359       393.11 3 4 0 100 13333.3 731.049
360       393.11 3 4 0 100 16000 733.091
361       393.11 3 4 0 100 18666.7 735.133
362       393.11 3 4 0 100 -18666.7 737.175
363       393.11 3 4 0 100 -16000 739.217
364       393.11 3 4 0 100 -13333.3 741.259
365       393.11 3 4 0 100 -10666.7 743.301
366       393.11 3 4 0 100 -8000 745.343
367       393.11 3 4 0 100 -5333.33 747.385
368       393.11 3 4 0 100 -2666.67 749.427
369       393.11 3 4 0 100 0 751.469
370       393.11 3 4 0 100 2666.67 753.511
371       393.11 3 4 0 100 5333.33 755.553
372       393.11 3 4 0 100 8000 757.595
373       393.11 3 4 0 100 10666.7 759.637
374       393.11 3 4 0 100 13333.3 761.679
375       393.11 3 4 0 100 16000 763.721
376       393.11 3 4 0 100 18666.7 765.763
377       393.11 3 4 0 100 -18666.7 767.805
378       393.11 3 4 0 100 -16000 769.847
379       393.11 3 4 0 100 -13333.3 771.889
380       393.11 3 4 0 100 -10666.7 773.931
381       393.11 3 4 0 100 -8000 775.973
382       393.11 3 4 0 100 -5333.33 778.015
383       393.11 3 4 0 100 -2666.67 780.057
384       393.11 3 4 0 100 0 782.099
385       393.11 3 4 0 100 2666.67 784.142
386       393.11 3 4 0 100 5333.33 786.184
387       393.11 3 4 0 100 8000 788.226
388       393.11 3 4 0 100 10666.7 790.268
389       393.11 3 4 0 100 13333.3 792.31
390       393.11 3 4 0 100 16000 794.352
391       393.11 3 4 0 100 18666.7 796.394
392       393.11 3 4 0 100 -18666.7 798.436
393       393.11 3 4 0 100 -16000 800.478
394       393.11 3 4 0 100 -13333.3 802.52
395       393.11 3 4 0 100 -10666.7 804.562
396       393.11 3 4 0 100 -8000 806.604
397       393.11 3 4 0 100 -5333.33 808.646
398       393.11 3 4 0 100 -2666.67 810.688
399       393.11 3 4 0 100 0 812.73
400       393.11 3 4 0 100 2666.67 814.772
401       393.11 3 4 0 100 5333.33 816.814
402       393.11 3 4 0 100 8000 818.856
403       393.11 3 4 0 100 10666.7 820.898
404       393.11 3 4 0 100 13333.3 822.94
405       393.11 3 4 0 100 16000 824.982
406       393.11 3 4 0 100 18666.7 827.024
407       393.11 3 4 0 100 -18666.7 829.066
408       393.11 3 4 0 100 -16000 831.108
409       393.11 3 4 0 100 -13333.3 833.15
410       393.11 3 4 0 100 -10666.7 835.192
411       393.11 3 4 0 100 -8000 837.234
412       393.11 3 4 0 100 -5333.33 839.276
413       393.11 3 4 0 100 -2666.67 841.319
414       393.11 3 4 0 100 0 843.361
415       393.11 3 4 0 100 2666.67 845.403
416       393.11 3 4 0 100 5333.33 847.445
417       393.11 3 4 0 100 8000 849.487
418       393.11 3 4 0 100 10666.7 851.529
419       393.11 3 4 0 100 13333.3 853.571
420       393.11 3 4 0 100 16000 855.613
421       393.11 3 4 0 100 18666.7 857.655
422       393.11 3 4 0 100 -18666.7 859.697
423       393.11 3 4 0 100 -16000 861.739
424       393.11 3 4 0 100 -13333.3 863.781
425       393.11 3 4 0 100 -10666.7 865.823
426       393.11 3 4 0 100 -8000 867.865
427       393.11 3 4 0 100 -5333.33 869.907
428       393.11 3 4 0 100 -2666.67 871.949
429       393.11 3 4 0 100 0 873.991
430       393.11 3 4 0 100 2666.67 876.033
431       393.11 3 4 0 100 5333.33 878.075
432       393.11 3 4 0 100 8000 880.117
433       393.11 3 4 0 100 10666.7 882.159
434       393.11 3 4 0 100 13333.3 884.201
435       393.11 3 4 0 100 16000 886.243
436       393.11 3 4 0 100 18666.7 888.285
437       393.11 3 4 0 100 -18666.7 890.327
438       393.11 3 4 0 100 -16000 892.369
439       393.11 3 4 0 100 -13333.3 894.411
440       393.11 3 4 0 100 -10666.7 896.453
441       393.11 3 4 0 100 -8000 898.495
442       393.11 3 4 0 100 -5333.33 900.538
443       393.11 3 4 0 100 -2666.67 902.58
444       393.11 3 4 0 100 0 904.622
445       393.11 3 4 0 100 2666.67 906.664
446       393.11 3 4 0 100 5333.33 908.706
447       393.11 3 4 0 100 8000 910.748
448       393.11 3 4 0 100 10666.7 912.79
449       393.11 3 4 0 100 13333.3 914.832
450       393.11 3 4 0 100 16000 916.874
451       393.11 3 4 0 100 18666.7 918.916
452       393.11 3 4 0 100 -18666.7 920.958
453       393.11 3 4 0 100 -16000 923
454       393.11 3 4 0 100 -13333.3 925.042
455       393.11 3 4 0 100 -10666.7 927.084
456       393.11 3 4 0 100 -8000 929.126
457       393.11 3 4 0 100 -5333.33 931.168
458       393.11 3 4 0 100 -2666.67 933.21
459       393.11 3 4 0 100 0 935.252
460       393.11 3 4 0 100 2666.67 937.294
461       393.11 3 4 0 100 5333.33 939.336
462       393.11 3 4 0 100 8000 941.378
463       393.11 3 4 0 100 10666.7 943.42
464       393.11 3 4 0 100 13333.3 945.462
465       393.11 3 4 0 100 16000 947.504
466       393.11 3 4 0 100 18666.7 949.546
467       393.11 3 4 0 100 -18666.7 951.588
468       393.11 3 4 0 100 -16000 953.63
469       393.11 3 4 0 100 -13333.3 955.672
470       393.11 3 4 0 100 -10666.7 957.715
471       393.11 3 4 0 100 -8000 959.757
472       393.11 3 4 0 100 -5333.33 961.799
473       393.11 3 4 0 100 -2666.67 963.841
474       393.11 3 4 0 100 0 965.883
475       393.11 3 4 0 100 2666.67 967.925
