# Pulseq sequence file
# Created by MATLAB mr toolbox

[VERSION]
major 1
minor 4
revision 1

[DEFINITIONS]
AdcRasterTime 1e-07 
BlockDurationRaster 1e-05 
FOV 0.24 0.24 0.03 
GradientRasterTime 1e-05 
Name OSSI 
RadiofrequencyRasterTime 1e-06 
TotalDuration 144.096 

# Format of blocks:
# NUM DUR RF  GX  GY  GZ  ADC  EXT
[BLOCKS]
    1 386   1   0   0   1  0  1
    2  90   0   0   0   2  0  0
    3 1352   0   3   4   0  0  0
    4  90   0   0   0   5  0  0
    5 1084   0   0   0   0  0  0
    6 386   2   0   0   1  0  1
    7  90   0   0   0   2  0  0
    8 1352   0   3   4   0  0  0
    9  90   0   0   0   5  0  0
   10 1084   0   0   0   0  0  0
   11 386   3   0   0   1  0  1
   12  90   0   0   0   2  0  0
   13 1352   0   3   4   0  0  0
   14  90   0   0   0   5  0  0
   15 1084   0   0   0   0  0  0
   16 386   4   0   0   1  0  1
   17  90   0   0   0   2  0  0
   18 1352   0   3   4   0  0  0
   19  90   0   0   0   5  0  0
   20 1084   0   0   0   0  0  0
   21 386   5   0   0   1  0  1
   22  90   0   0   0   2  0  0
   23 1352   0   3   4   0  0  0
   24  90   0   0   0   5  0  0
   25 1084   0   0   0   0  0  0
   26 386   6   0   0   1  0  1
   27  90   0   0   0   2  0  0
   28 1352   0   3   4   0  0  0
   29  90   0   0   0   5  0  0
   30 1084   0   0   0   0  0  0
   31 386   7   0   0   1  0  1
   32  90   0   0   0   2  0  0
   33 1352   0   3   4   0  0  0
   34  90   0   0   0   5  0  0
   35 1084   0   0   0   0  0  0
   36 386   8   0   0   1  0  1
   37  90   0   0   0   2  0  0
   38 1352   0   3   4   0  0  0
   39  90   0   0   0   5  0  0
   40 1084   0   0   0   0  0  0
   41 386   9   0   0   1  0  1
   42  90   0   0   0   2  0  0
   43 1352   0   3   4   0  0  0
   44  90   0   0   0   5  0  0
   45 1084   0   0   0   0  0  0
   46 386  10   0   0   1  0  1
   47  90   0   0   0   2  0  0
   48 1352   0   3   4   0  0  0
   49  90   0   0   0   5  0  0
   50 1084   0   0   0   0  0  0
   51 386   1   0   0   1  0  1
   52  90   0   0   0   6  0  0
   53 1352   0   3   4   0  0  0
   54  90   0   0   0   7  0  0
   55 1084   0   0   0   0  0  0
   56 386   2   0   0   1  0  1
   57  90   0   0   0   6  0  0
   58 1352   0   3   4   0  0  0
   59  90   0   0   0   7  0  0
   60 1084   0   0   0   0  0  0
   61 386   3   0   0   1  0  1
   62  90   0   0   0   6  0  0
   63 1352   0   3   4   0  0  0
   64  90   0   0   0   7  0  0
   65 1084   0   0   0   0  0  0
   66 386   4   0   0   1  0  1
   67  90   0   0   0   6  0  0
   68 1352   0   3   4   0  0  0
   69  90   0   0   0   7  0  0
   70 1084   0   0   0   0  0  0
   71 386   5   0   0   1  0  1
   72  90   0   0   0   6  0  0
   73 1352   0   3   4   0  0  0
   74  90   0   0   0   7  0  0
   75 1084   0   0   0   0  0  0
   76 386   6   0   0   1  0  1
   77  90   0   0   0   6  0  0
   78 1352   0   3   4   0  0  0
   79  90   0   0   0   7  0  0
   80 1084   0   0   0   0  0  0
   81 386   7   0   0   1  0  1
   82  90   0   0   0   6  0  0
   83 1352   0   3   4   0  0  0
   84  90   0   0   0   7  0  0
   85 1084   0   0   0   0  0  0
   86 386   8   0   0   1  0  1
   87  90   0   0   0   6  0  0
   88 1352   0   3   4   0  0  0
   89  90   0   0   0   7  0  0
   90 1084   0   0   0   0  0  0
   91 386   9   0   0   1  0  1
   92  90   0   0   0   6  0  0
   93 1352   0   3   4   0  0  0
   94  90   0   0   0   7  0  0
   95 1084   0   0   0   0  0  0
   96 386  10   0   0   1  0  1
   97  90   0   0   0   6  0  0
   98 1352   0   3   4   0  0  0
   99  90   0   0   0   7  0  0
  100 1084   0   0   0   0  0  0
  101 386   1   0   0   1  0  1
  102  90   0   0   0   8  0  0
  103 1352   0   3   4   0  0  0
  104  90   0   0   0   9  0  0
  105 1084   0   0   0   0  0  0
  106 386   2   0   0   1  0  1
  107  90   0   0   0   8  0  0
  108 1352   0   3   4   0  0  0
  109  90   0   0   0   9  0  0
  110 1084   0   0   0   0  0  0
  111 386   3   0   0   1  0  1
  112  90   0   0   0   8  0  0
  113 1352   0   3   4   0  0  0
  114  90   0   0   0   9  0  0
  115 1084   0   0   0   0  0  0
  116 386   4   0   0   1  0  1
  117  90   0   0   0   8  0  0
  118 1352   0   3   4   0  0  0
  119  90   0   0   0   9  0  0
  120 1084   0   0   0   0  0  0
  121 386   5   0   0   1  0  1
  122  90   0   0   0   8  0  0
  123 1352   0   3   4   0  0  0
  124  90   0   0   0   9  0  0
  125 1084   0   0   0   0  0  0
  126 386   6   0   0   1  0  1
  127  90   0   0   0   8  0  0
  128 1352   0   3   4   0  0  0
  129  90   0   0   0   9  0  0
  130 1084   0   0   0   0  0  0
  131 386   7   0   0   1  0  1
  132  90   0   0   0   8  0  0
  133 1352   0   3   4   0  0  0
  134  90   0   0   0   9  0  0
  135 1084   0   0   0   0  0  0
  136 386   8   0   0   1  0  1
  137  90   0   0   0   8  0  0
  138 1352   0   3   4   0  0  0
  139  90   0   0   0   9  0  0
  140 1084   0   0   0   0  0  0
  141 386   9   0   0   1  0  1
  142  90   0   0   0   8  0  0
  143 1352   0   3   4   0  0  0
  144  90   0   0   0   9  0  0
  145 1084   0   0   0   0  0  0
  146 386  10   0   0   1  0  1
  147  90   0   0   0   8  0  0
  148 1352   0   3   4   0  0  0
  149  90   0   0   0   9  0  0
  150 1084   0   0   0   0  0  0
  151 386   1   0   0   1  0  1
  152  90   0   0   0  10  0  0
  153 1352   0   3   4   0  0  0
  154  90   0   0   0  11  0  0
  155 1084   0   0   0   0  0  0
  156 386   2   0   0   1  0  1
  157  90   0   0   0  10  0  0
  158 1352   0   3   4   0  0  0
  159  90   0   0   0  11  0  0
  160 1084   0   0   0   0  0  0
  161 386   3   0   0   1  0  1
  162  90   0   0   0  10  0  0
  163 1352   0   3   4   0  0  0
  164  90   0   0   0  11  0  0
  165 1084   0   0   0   0  0  0
  166 386   4   0   0   1  0  1
  167  90   0   0   0  10  0  0
  168 1352   0   3   4   0  0  0
  169  90   0   0   0  11  0  0
  170 1084   0   0   0   0  0  0
  171 386   5   0   0   1  0  1
  172  90   0   0   0  10  0  0
  173 1352   0   3   4   0  0  0
  174  90   0   0   0  11  0  0
  175 1084   0   0   0   0  0  0
  176 386   6   0   0   1  0  1
  177  90   0   0   0  10  0  0
  178 1352   0   3   4   0  0  0
  179  90   0   0   0  11  0  0
  180 1084   0   0   0   0  0  0
  181 386   7   0   0   1  0  1
  182  90   0   0   0  10  0  0
  183 1352   0   3   4   0  0  0
  184  90   0   0   0  11  0  0
  185 1084   0   0   0   0  0  0
  186 386   8   0   0   1  0  1
  187  90   0   0   0  10  0  0
  188 1352   0   3   4   0  0  0
  189  90   0   0   0  11  0  0
  190 1084   0   0   0   0  0  0
  191 386   9   0   0   1  0  1
  192  90   0   0   0  10  0  0
  193 1352   0   3   4   0  0  0
  194  90   0   0   0  11  0  0
  195 1084   0   0   0   0  0  0
  196 386  10   0   0   1  0  1
  197  90   0   0   0  10  0  0
  198 1352   0   3   4   0  0  0
  199  90   0   0   0  11  0  0
  200 1084   0   0   0   0  0  0
  201 386   1   0   0   1  0  1
  202  90   0   0   0  12  0  0
  203 1352   0   3   4   0  0  0
  204  90   0   0   0  13  0  0
  205 1084   0   0   0   0  0  0
  206 386   2   0   0   1  0  1
  207  90   0   0   0  12  0  0
  208 1352   0   3   4   0  0  0
  209  90   0   0   0  13  0  0
  210 1084   0   0   0   0  0  0
  211 386   3   0   0   1  0  1
  212  90   0   0   0  12  0  0
  213 1352   0   3   4   0  0  0
  214  90   0   0   0  13  0  0
  215 1084   0   0   0   0  0  0
  216 386   4   0   0   1  0  1
  217  90   0   0   0  12  0  0
  218 1352   0   3   4   0  0  0
  219  90   0   0   0  13  0  0
  220 1084   0   0   0   0  0  0
  221 386   5   0   0   1  0  1
  222  90   0   0   0  12  0  0
  223 1352   0   3   4   0  0  0
  224  90   0   0   0  13  0  0
  225 1084   0   0   0   0  0  0
  226 386   6   0   0   1  0  1
  227  90   0   0   0  12  0  0
  228 1352   0   3   4   0  0  0
  229  90   0   0   0  13  0  0
  230 1084   0   0   0   0  0  0
  231 386   7   0   0   1  0  1
  232  90   0   0   0  12  0  0
  233 1352   0   3   4   0  0  0
  234  90   0   0   0  13  0  0
  235 1084   0   0   0   0  0  0
  236 386   8   0   0   1  0  1
  237  90   0   0   0  12  0  0
  238 1352   0   3   4   0  0  0
  239  90   0   0   0  13  0  0
  240 1084   0   0   0   0  0  0
  241 386   9   0   0   1  0  1
  242  90   0   0   0  12  0  0
  243 1352   0   3   4   0  0  0
  244  90   0   0   0  13  0  0
  245 1084   0   0   0   0  0  0
  246 386  10   0   0   1  0  1
  247  90   0   0   0  12  0  0
  248 1352   0   3   4   0  0  0
  249  90   0   0   0  13  0  0
  250 1084   0   0   0   0  0  0
  251 386   1   0   0   1  0  1
  252  90   0   0   0  13  0  0
  253 1352   0   3   4   0  0  0
  254  90   0   0   0  12  0  0
  255 1084   0   0   0   0  0  0
  256 386   2   0   0   1  0  1
  257  90   0   0   0  13  0  0
  258 1352   0   3   4   0  0  0
  259  90   0   0   0  12  0  0
  260 1084   0   0   0   0  0  0
  261 386   3   0   0   1  0  1
  262  90   0   0   0  13  0  0
  263 1352   0   3   4   0  0  0
  264  90   0   0   0  12  0  0
  265 1084   0   0   0   0  0  0
  266 386   4   0   0   1  0  1
  267  90   0   0   0  13  0  0
  268 1352   0   3   4   0  0  0
  269  90   0   0   0  12  0  0
  270 1084   0   0   0   0  0  0
  271 386   5   0   0   1  0  1
  272  90   0   0   0  13  0  0
  273 1352   0   3   4   0  0  0
  274  90   0   0   0  12  0  0
  275 1084   0   0   0   0  0  0
  276 386   6   0   0   1  0  1
  277  90   0   0   0  13  0  0
  278 1352   0   3   4   0  0  0
  279  90   0   0   0  12  0  0
  280 1084   0   0   0   0  0  0
  281 386   7   0   0   1  0  1
  282  90   0   0   0  13  0  0
  283 1352   0   3   4   0  0  0
  284  90   0   0   0  12  0  0
  285 1084   0   0   0   0  0  0
  286 386   8   0   0   1  0  1
  287  90   0   0   0  13  0  0
  288 1352   0   3   4   0  0  0
  289  90   0   0   0  12  0  0
  290 1084   0   0   0   0  0  0
  291 386   9   0   0   1  0  1
  292  90   0   0   0  13  0  0
  293 1352   0   3   4   0  0  0
  294  90   0   0   0  12  0  0
  295 1084   0   0   0   0  0  0
  296 386  10   0   0   1  0  1
  297  90   0   0   0  13  0  0
  298 1352   0   3   4   0  0  0
[RF]
1      55.8278 1 2 0 430 0 0
2      55.8278 1 2 0 430 0 0.314159
3      55.8278 1 2 0 430 0 1.25664
4      55.8278 1 2 0 430 0 2.82743
5      55.8278 1 2 0 430 0 5.02655
6      55.8278 1 2 0 430 0 7.85398
7      55.8278 1 2 0 430 0 11.3097
8      55.8278 1 2 0 430 0 15.3938
9      55.8278 1 2 0 430 0 20.1062
10      55.8278 1 2 0 430 0 25.4469

# Format of arbitrary gradients:
#   time_shape_id of 0 means default timing (stepping with grad_raster starting at 1/2 of grad_raster)
# id amplitude amp_shape_id time_shape_id delay
# ..      Hz/m       ..         ..          us
[GRADIENTS]
1      -336667 3 4 0
3       449499 5 0 100
4       442389 6 0 100
14      -442389 7 0 100
15       449499 8 0 100
16      -449499 9 0 100
17      -442389 6 0 100
18       442389 7 0 100
19      -449499 10 0 100

# Format of trapezoid gradients:
# id amplitude rise flat fall delay
# ..      Hz/m   us   us   us    us
[TRAP]
 2      -326797 390  120 390   0
 5       326797 390  120 390   0
 6      -254176 390  120 390   0
 7       254176 390  120 390   0
 8      -181554 390  120 390   0
 9       181554 390  120 390   0
10      -108932 390  120 390   0
11       108932 390  120 390   0
12     -36310.8 390  120 390   0
13      36310.8 390  120 390   0

# Format of ADC events:
# id num dwell delay freq phase
# ..  ..    ns    us   Hz   rad
[ADC]
1 1087 10000 100 0 0
2 1087 10000 100 0 0.314159
3 1087 10000 100 0 1.25664
4 1087 10000 100 0 2.82743
5 1087 10000 100 0 5.02655
6 1087 10000 100 0 7.85398
7 1087 10000 100 0 11.3097
8 1087 10000 100 0 15.3938
9 1087 10000 100 0 20.1062
10 1087 10000 100 0 25.4469

# Format of extension lists:
# id type ref next_id
# next_id of 0 terminates the list
# Extension list is followed by extension specifications
[EXTENSIONS]
1 1 1 0
2 1 2 0
3 1 3 0
4 1 4 0
5 1 5 0
6 1 6 0
7 1 7 0
8 1 8 0

# Extension specification for setting labels:
# id set labelstring
extension LABELSET 1
1 2 TRID
2 3 TRID
3 4 TRID
4 5 TRID
5 6 TRID
6 7 TRID
7 8 TRID
8 9 TRID

# Sequence Shapes
[SHAPES]

shape_id 1
num_samples 3000
5.33512061e-05
0.000160161335
0.000267116839
0.000374219827
0.000481472412
0.000588876712
0.00069643485
0.000804148955
0.000912021157
0.00102005359
0.0011282484
0.00123660773
0.00134513373
0.00145382854
0.00156269432
0.00167173322
0.00178094741
0.00189033905
0.0019999103
0.00210966333
0.00221960031
0.00232972341
0.00244003479
0.00255053664
0.00266123112
0.00277212042
0.0028832067
0.00299449215
0.00310597893
0.00321766924
0.00332956523
0.0034416691
0.00355398301
0.00366650915
0.00377924967
0.00389220677
0.0040053826
0.00411877934
0.00423239915
0.00434624421
0.00446031667
0.0045746187
0.00468915245
0.00480392009
0.00491892375
0.0050341656
0.00514964778
0.00526537242
0.00538134167
0.00549755767
0.00561402253
0.00573073839
0.00584770736
0.00596493156
0.0060824131
0.00620015408
0.0063181566
0.00643642275
0.00655495462
0.00667375429
0.00679282382
0.0069121653
0.00703178077
0.00715167228
0.00727184189
0.00739229163
0.00751302352
0.00763403959
0.00775534184
0.00787693229
0.00799881293
0.00812098573
0.00824345268
0.00836621575
0.00848927689
0.00861263804
0.00873630115
0.00886026813
0.00898454092
0.0091091214
0.00923401147
0.00935921303
0.00948472792
0.00961055802
0.00973670518
0.00986317122
0.00998995796
0.0101170672
0.0102445008
0.0103722605
0.010500348
0.0106287652
0.0107575137
0.0108865953
0.0110160118
0.0111457647
0.0112758559
0.0114062868
0.0115370594
0.011668175
0.0117996355
0.0119314423
0.0120635972
0.0121961015
0.012328957
0.0124621652
0.0125957275
0.0127296456
0.0128639208
0.0129985546
0.0131335486
0.0132689041
0.0134046226
0.0135407055
0.013677154
0.0138139698
0.0139511539
0.0140887078
0.0142266329
0.0143649302
0.0145036012
0.0146426471
0.0147820691
0.0149218683
0.0150620461
0.0152026035
0.0153435416
0.0154848617
0.0156265647
0.0157686518
0.015911124
0.0160539824
0.0161972279
0.0163408615
0.0164848842
0.016629297
0.0167741007
0.0169192962
0.0170648843
0.0172108661
0.0173572421
0.0175040133
0.0176511804
0.0177987441
0.0179467052
0.0180950644
0.0182438222
0.0183929794
0.0185425366
0.0186924943
0.0188428531
0.0189936136
0.0191447761
0.0192963414
0.0194483097
0.0196006814
0.0197534571
0.019906637
0.0200602216
0.020214211
0.0203686056
0.0205234057
0.0206786114
0.020834223
0.0209902406
0.0211466644
0.0213034945
0.0214607308
0.0216183736
0.0217764228
0.0219348784
0.0220937403
0.0222530084
0.0224126827
0.0225727631
0.0227332492
0.022894141
0.0230554382
0.0232171406
0.0233792478
0.0235417594
0.0237046752
0.0238679948
0.0240317176
0.0241958433
0.0243603714
0.0245253012
0.0246906323
0.0248563641
0.0250224958
0.0251890269
0.0253559566
0.0255232843
0.025691009
0.0258591301
0.0260276467
0.0261965579
0.0263658627
0.0265355603
0.0267056496
0.0268761297
0.0270469995
0.0272182578
0.0273899036
0.0275619356
0.0277343527
0.0279071537
0.0280803372
0.028253902
0.0284278466
0.0286021697
0.0287768699
0.0289519457
0.0291273956
0.029303218
0.0294794114
0.0296559741
0.0298329045
0.0300102009
0.0301878615
0.0303658846
0.0305442683
0.0307230109
0.0309021103
0.0310815647
0.0312613721
0.0314415304
0.0316220377
0.0318028918
0.0319840905
0.0321656318
0.0323475134
0.032529733
0.0327122883
0.032895177
0.0330783967
0.033261945
0.0334458194
0.0336300174
0.0338145364
0.033999374
0.0341845274
0.0343699939
0.0345557709
0.0347418555
0.0349282451
0.0351149367
0.0353019274
0.0354892144
0.0356767946
0.035864665
0.0360528226
0.0362412643
0.036429987
0.0366189873
0.0368082622
0.0369978083
0.0371876223
0.0373777009
0.0375680406
0.037758638
0.0379494896
0.0381405919
0.0383319412
0.038523534
0.0387153666
0.0389074352
0.0390997361
0.0392922655
0.0394850196
0.0396779943
0.0398711859
0.0400645904
0.0402582036
0.0404520215
0.04064604
0.0408402549
0.0410346621
0.0412292572
0.041424036
0.0416189941
0.0418141271
0.0420094306
0.0422049002
0.0424005311
0.042596319
0.0427922591
0.0429883469
0.0431845775
0.0433809463
0.0435774484
0.043774079
0.0439708332
0.044167706
0.0443646925
0.0445617876
0.0447589862
0.0449562833
0.0451536736
0.0453511519
0.0455487129
0.0457463514
0.045944062
0.0461418393
0.0463396777
0.0465375719
0.0467355163
0.0469335053
0.0471315333
0.0473295945
0.0475276832
0.0477257938
0.0479239202
0.0481220568
0.0483201975
0.0485183364
0.0487164674
0.0489145847
0.0491126819
0.0493107531
0.0495087919
0.0497067922
0.0499047476
0.0501026519
0.0503004986
0.0504982813
0.0506959936
0.0508936289
0.0510911807
0.0512886424
0.0514860072
0.0516832685
0.0518804196
0.0520774536
0.0522743638
0.0524711431
0.0526677847
0.0528642817
0.0530606269
0.0532568133
0.0534528338
0.0536486812
0.0538443484
0.054039828
0.0542351127
0.0544301953
0.0546250683
0.0548197242
0.0550141557
0.0552083552
0.055402315
0.0555960276
0.0557894854
0.0559826805
0.0561756053
0.056368252
0.0565606126
0.0567526794
0.0569444444
0.0571358996
0.057327037
0.0575178486
0.0577083261
0.0578984615
0.0580882466
0.058277673
0.0584667326
0.0586554171
0.0588437179
0.0590316268
0.0592191352
0.0594062346
0.0595929165
0.0597791724
0.0599649935
0.0601503711
0.0603352967
0.0605197613
0.0607037563
0.0608872727
0.0610703017
0.0612528342
0.0614348615
0.0616163743
0.0617973638
0.0619778207
0.0621577359
0.0623371003
0.0625159045
0.0626941395
0.0628717957
0.063048864
0.0632253349
0.0634011989
0.0635764466
0.0637510686
0.0639250551
0.0640983967
0.0642710837
0.0644431065
0.0646144553
0.0647851204
0.0649550919
0.0651243601
0.0652929152
0.0654607471
0.0656278459
0.0657942017
0.0659598045
0.0661246441
0.0662887106
0.0664519936
0.0666144832
0.066776169
0.0669370408
0.0670970884
0.0672563014
0.0674146694
0.0675721821
0.0677288291
0.0678845998
0.0680394838
0.0681934705
0.0683465494
0.0684987098
0.0686499411
0.0688002327
0.0689495738
0.0690979537
0.0692453615
0.0693917866
0.0695372179
0.0696816448
0.0698250561
0.0699674411
0.0701087887
0.0702490879
0.0703883276
0.0705264968
0.0706635844
0.0707995792
0.07093447
0.0710682457
0.071200895
0.0713324067
0.0714627694
0.0715919719
0.0717200028
0.0718468506
0.071972504
0.0720969516
0.0722201818
0.0723421832
0.0724629442
0.0725824532
0.0727006988
0.0728176692
0.0729333529
0.0730477381
0.0731608132
0.0732725665
0.0733829861
0.0734920604
0.0735997774
0.0737061255
0.0738110928
0.0739146673
0.0740168372
0.0741175905
0.0742169153
0.0743147997
0.0744112315
0.0745061989
0.0745996898
0.074691692
0.0747821936
0.0748711824
0.0749586462
0.075044573
0.0751289505
0.0752117665
0.0752930089
0.0753726654
0.0754507237
0.0755271716
0.0756019967
0.0756751868
0.0757467295
0.0758166125
0.0758848234
0.0759513498
0.0760161793
0.0760792995
0.0761406979
0.076200362
0.0762582795
0.0763144379
0.0763688245
0.0764214269
0.0764722326
0.076521229
0.0765684036
0.0766137437
0.0766572368
0.0766988703
0.0767386316
0.0767765079
0.0768124868
0.0768465554
0.0768787013
0.0769089116
0.0769371737
0.076963475
0.0769878026
0.0770101438
0.077030486
0.0770488165
0.0770651223
0.0770793909
0.0770916094
0.077101765
0.0771098451
0.0771158367
0.0771197271
0.0771215035
0.0771211531
0.0771186631
0.0771140207
0.077107213
0.0770982273
0.0770870506
0.0770736701
0.0770580731
0.0770402467
0.0770201779
0.0769978541
0.0769732623
0.0769463896
0.0769172233
0.0768857505
0.0768519583
0.0768158339
0.0767773643
0.0767365369
0.0766933386
0.0766477567
0.0765997784
0.0765493907
0.0764965808
0.0764413358
0.0763836431
0.0763234896
0.0762608626
0.0761957493
0.0761281368
0.0760580122
0.0759853629
0.075910176
0.0758324387
0.0757521382
0.0756692617
0.0755837964
0.0754957297
0.0754050486
0.0753117405
0.0752157926
0.0751171921
0.0750159265
0.0749119829
0.0748053486
0.0746960109
0.0745839573
0.0744691749
0.0743516512
0.0742313734
0.074108329
0.0739825054
0.0738538899
0.07372247
0.073588233
0.0734511665
0.0733112578
0.0731684945
0.0730228641
0.0728743539
0.0727229516
0.0725686447
0.0724114208
0.0722512674
0.0720881722
0.0719221226
0.0717531065
0.0715811113
0.0714061249
0.0712281348
0.0710471289
0.0708630948
0.0706760203
0.0704858932
0.0702927013
0.0700964323
0.0698970743
0.069694615
0.0694890423
0.0692803441
0.0690685085
0.0688535234
0.0686353768
0.0684140566
0.0681895511
0.0679618482
0.067730936
0.0674968028
0.0672594366
0.0670188257
0.0667749582
0.0665278225
0.0662774069
0.0660236995
0.0657666889
0.0655063633
0.0652427112
0.0649757211
0.0647053813
0.0644316804
0.064154607
0.0638741496
0.0635902969
0.0633030374
0.0630123599
0.062718253
0.0624207056
0.0621197064
0.0618152443
0.061507308
0.0611958866
0.0608809689
0.060562544
0.0602406008
0.0599151284
0.0595861158
0.0592535524
0.0589174271
0.0585777293
0.0582344481
0.0578875729
0.0575370931
0.057182998
0.056825277
0.0564639196
0.0560989154
0.0557302539
0.0553579247
0.0549819174
0.0546022218
0.0542188276
0.0538317245
0.0534409025
0.0530463514
0.0526480611
0.0522460216
0.0518402229
0.0514306552
0.0510173085
0.050600173
0.0501792389
0.0497544965
0.0493259362
0.0488935483
0.0484573232
0.0480172514
0.0475733235
0.0471255301
0.0466738617
0.046218309
0.0457588629
0.0452955141
0.0448282535
0.044357072
0.0438819605
0.04340291
0.0429199118
0.0424329568
0.0419420363
0.0414471415
0.0409482637
0.0404453944
0.0399385249
0.0394276467
0.0389127514
0.0383938305
0.0378708757
0.0373438788
0.0368128315
0.0362777257
0.0357385533
0.0351953062
0.0346479766
0.0340965564
0.0335410379
0.0329814132
0.0324176747
0.0318498147
0.0312778257
0.0307017
0.0301214303
0.0295370092
0.0289484293
0.0283556834
0.0277587643
0.0271576649
0.0265523781
0.0259428969
0.0253292145
0.024711324
0.0240892186
0.0234628916
0.0228323363
0.0221975462
0.0215585148
0.0209152357
0.0202677025
0.0196159089
0.0189598487
0.0182995158
0.0176349041
0.0169660075
0.0162928203
0.0156153365
0.0149335504
0.0142474563
0.0135570485
0.0128623215
0.0121632698
0.011459888
0.0107521708
0.010040113
0.00932370935
0.0086029548
0.00787784432
0.00714837297
0.00641453591
0.00567632833
0.00493374555
0.00418678294
0.00343543595
0.00267970012
0.00191957106
0.00115504448
0.00038611613
0.000387218116
0.00116496233
0.00194712048
0.00273369648
0.00352469414
0.0043201172
0.00511996931
0.00592425405
0.00673297489
0.00754613524
0.00836373842
0.00918578767
0.0100122861
0.0108432369
0.0116786429
0.0125185071
0.0133628323
0.0142116211
0.0150648763
0.0159226004
0.0167847959
0.0176514651
0.0185226103
0.0193982338
0.0202783376
0.0211629238
0.0220519944
0.0229455511
0.0238435958
0.0247461301
0.0256531556
0.0265646738
0.0274806861
0.0284011939
0.0293261983
0.0302557006
0.0311897016
0.0321282025
0.033071204
0.034018707
0.0349707121
0.0359272199
0.036888231
0.0378537456
0.0388237642
0.0397982869
0.0407773139
0.0417608452
0.0427488808
0.0437414205
0.044738464
0.045740011
0.0467460612
0.0477566139
0.0487716685
0.0497912243
0.0508152805
0.0518438363
0.0528768905
0.0539144421
0.0549564899
0.0560030326
0.0570540688
0.0581095971
0.0591696158
0.0602341233
0.0613031178
0.0623765975
0.0634545603
0.0645370042
0.0656239271
0.0667153267
0.0678112006
0.0689115463
0.0700163614
0.0711256432
0.0722393889
0.0733575956
0.0744802605
0.0756073804
0.0767389523
0.0778749729
0.0790154388
0.0801603466
0.0813096928
0.0824634736
0.0836216855
0.0847843245
0.0859513867
0.087122868
0.0882987643
0.0894790714
0.0906637849
0.0918529004
0.0930464133
0.094244319
0.0954466127
0.0966532896
0.0978643447
0.0990797731
0.100299569
0.101523729
0.102752245
0.103985114
0.105222329
0.106463884
0.107709775
0.108959995
0.110214538
0.111473398
0.112736569
0.114004045
0.115275819
0.116551885
0.117832236
0.119116866
0.120405767
0.121698933
0.122996357
0.124298032
0.125603951
0.126914106
0.12822849
0.129547095
0.130869914
0.132196939
0.133528163
0.134863577
0.136203173
0.137546943
0.13889488
0.140246974
0.141603218
0.142963602
0.144328118
0.145696758
0.147069513
0.148446373
0.149827329
0.151212373
0.152601495
0.153994686
0.155391937
0.156793237
0.158198577
0.159607948
0.161021339
0.162438741
0.163860143
0.165285535
0.166714908
0.16814825
0.169585552
0.171026802
0.17247199
0.173921105
0.175374136
0.176831072
0.178291903
0.179756617
0.181225202
0.182697648
0.184173942
0.185654073
0.18713803
0.188625801
0.190117373
0.191612735
0.193111874
0.194614779
0.196121437
0.197631836
0.199145963
0.200663805
0.202185351
0.203710586
0.205239498
0.206772075
0.208308302
0.209848167
0.211391657
0.212938757
0.214489455
0.216043737
0.217601589
0.219162997
0.220727948
0.222296427
0.223868421
0.225443915
0.227022894
0.228605345
0.230191252
0.231780602
0.23337338
0.23496957
0.236569158
0.238172129
0.239778468
0.241388159
0.243001188
0.244617538
0.246237195
0.247860143
0.249486366
0.251115848
0.252748574
0.254384528
0.256023693
0.257666054
0.259311593
0.260960296
0.262612145
0.264267124
0.265925216
0.267586404
0.269250673
0.270918004
0.272588381
0.274261786
0.275938203
0.277617615
0.279300003
0.280985351
0.282673641
0.284364855
0.286058975
0.287755984
0.289455865
0.291158597
0.292864165
0.294572549
0.296283731
0.297997693
0.299714417
0.301433884
0.303156074
0.304880971
0.306608554
0.308338805
0.310071705
0.311807234
0.313545374
0.315286106
0.31702941
0.318775266
0.320523656
0.322274559
0.324027956
0.325783827
0.327542153
0.329302913
0.331066087
0.332831656
0.334599599
0.336369896
0.338142526
0.33991747
0.341694706
0.343474214
0.345255973
0.347039964
0.348826164
0.350614553
0.352405109
0.354197813
0.355992643
0.357789577
0.359588594
0.361389673
0.363192793
0.364997931
0.366805066
0.368614177
0.370425242
0.372238239
0.374053146
0.375869941
0.377688602
0.379509107
0.381331434
0.38315556
0.384981463
0.38680912
0.38863851
0.390469609
0.392302395
0.394136845
0.395972937
0.397810647
0.399649953
0.401490831
0.403333259
0.405177213
0.407022671
0.408869609
0.410718003
0.41256783
0.414419067
0.41627169
0.418125676
0.419981001
0.421837641
0.423695573
0.425554772
0.427415215
0.429276878
0.431139736
0.433003765
0.434868942
0.436735242
0.438602641
0.440471115
0.442340638
0.444211188
0.446082738
0.447955265
0.449828743
0.451703149
0.453578457
0.455454643
0.457331681
0.459209547
0.461088216
0.462967663
0.464847862
0.466728789
0.468610418
0.470492725
0.472375683
0.474259267
0.476143453
0.478028214
0.479913525
0.481799361
0.483685696
0.485572503
0.487459759
0.489347436
0.491235509
0.493123953
0.495012741
0.496901847
0.498791245
0.50068091
0.502570815
0.504460934
0.506351241
0.508241711
0.510132315
0.512023029
0.513913826
0.51580468
0.517695564
0.519586451
0.521477316
0.523368132
0.525258872
0.52714951
0.529040019
0.530930372
0.532820543
0.534710504
0.53660023
0.538489693
0.540378867
0.542267725
0.544156239
0.546044383
0.54793213
0.549819452
0.551706324
0.553592718
0.555478606
0.557363961
0.559248758
0.561132967
0.563016563
0.564899517
0.566781803
0.568663394
0.570544261
0.572424379
0.574303719
0.576182253
0.578059956
0.579936799
0.581812755
0.583687796
0.585561895
0.587435024
0.589307156
0.591178264
0.59304832
0.594917296
0.596785165
0.598651899
0.60051747
0.602381851
0.604245015
0.606106933
0.607967579
0.609826923
0.61168494
0.6135416
0.615396876
0.617250741
0.619103167
0.620954126
0.62280359
0.624651531
0.626497923
0.628342736
0.630185944
0.632027519
0.633867432
0.635705656
0.637542163
0.639376925
0.641209915
0.643041105
0.644870467
0.646697973
0.648523596
0.650347307
0.652169079
0.653988884
0.655806695
0.657622482
0.65943622
0.661247879
0.663057433
0.664864853
0.666670112
0.668473181
0.670274034
0.672072642
0.673868978
0.675663014
0.677454722
0.679244074
0.681031044
0.682815602
0.684597723
0.686377377
0.688154537
0.689929177
0.691701267
0.69347078
0.69523769
0.697001968
0.698763587
0.700522519
0.702278736
0.704032212
0.705782919
0.707530829
0.709275916
0.71101815
0.712757506
0.714493956
0.716227472
0.717958028
0.719685595
0.721410147
0.723131656
0.724850096
0.726565438
0.728277657
0.729986724
0.731692612
0.733395296
0.735094747
0.736790938
0.738483843
0.740173435
0.741859686
0.74354257
0.74522206
0.746898129
0.748570751
0.750239898
0.751905544
0.753567663
0.755226227
0.75688121
0.758532586
0.760180327
0.761824409
0.763464803
0.765101484
0.766734425
0.768363601
0.769988984
0.771610549
0.773228269
0.774842118
0.77645207
0.7780581
0.77966018
0.781258286
0.782852391
0.784442469
0.786028495
0.787610443
0.789188287
0.790762001
0.79233156
0.793896938
0.79545811
0.797015051
0.798567734
0.800116135
0.801660228
0.803199988
0.80473539
0.806266409
0.80779302
0.809315197
0.810832916
0.812346151
0.813854879
0.815359074
0.816858711
0.818353766
0.819844215
0.821330032
0.822811193
0.824287674
0.825759451
0.827226499
0.828688793
0.830146311
0.831599028
0.833046919
0.834489961
0.83592813
0.837361402
0.838789753
0.84021316
0.841631599
0.843045047
0.844453479
0.845856874
0.847255206
0.848648454
0.850036594
0.851419602
0.852797456
0.854170133
0.85553761
0.856899864
0.858256873
0.859608613
0.860955063
0.862296199
0.863631999
0.864962441
0.866287503
0.867607162
0.868921397
0.870230185
0.871533504
0.872831333
0.87412365
0.875410433
0.87669166
0.87796731
0.879237362
0.880501793
0.881760584
0.883013712
0.884261157
0.885502897
0.886738912
0.887969181
0.889193682
0.890412396
0.891625302
0.892832379
0.894033607
0.895228966
0.896418435
0.897601995
0.898779624
0.899951304
0.901117014
0.902276736
0.903430448
0.904578131
0.905719767
0.906855336
0.907984817
0.909108193
0.910225445
0.911336552
0.912441497
0.91354026
0.914632822
0.915719167
0.916799273
0.917873124
0.918940702
0.920001986
0.921056961
0.922105608
0.923147908
0.924183844
0.925213399
0.926236555
0.927253293
0.928263598
0.929267452
0.930264837
0.931255737
0.932240134
0.933218012
0.934189353
0.935154143
0.936112362
0.937063997
0.938009029
0.938947443
0.939879223
0.940804353
0.941722817
0.942634598
0.943539683
0.944438054
0.945329697
0.946214596
0.947092736
0.947964102
0.948828679
0.949686452
0.950537406
0.951381527
0.9522188
0.95304921
0.953872744
0.954689387
0.955499126
0.956301945
0.957097832
0.957886773
0.958668753
0.95944376
0.96021178
0.9609728
0.961726807
0.962473788
0.963213729
0.963946619
0.964672443
0.965391191
0.966102849
0.966807405
0.967504847
0.968195163
0.968878341
0.969554369
0.970223235
0.970884928
0.971539437
0.972186749
0.972826855
0.973459742
0.974085399
0.974703817
0.975314984
0.975918889
0.976515523
0.977104874
0.977686933
0.978261689
0.978829133
0.979389255
