# Pulseq sequence file
# Created by MATLAB mr toolbox

[VERSION]
major 1
minor 4
revision 1

[DEFINITIONS]
AdcRasterTime 1e-07 
BlockDurationRaster 1e-05 
FOV 0.24 0.24 0.03 
GradientRasterTime 1e-05 
Name 3DGRE 
RadiofrequencyRasterTime 1e-06 
TotalDuration 33.7512 

# Format of blocks:
# NUM DUR RF  GX  GY  GZ  ADC  EXT
[BLOCKS]
   1 1003   1   0   0   1  0  1
   2 368   2   0   0   2  0  0
   3  52   0   0   0   3  0  0
   4 930   0   4   5   0  0  0
   5  52   0   0   0   6  0  0
   6  92   0   7   0   8  0  0
   7 1521   0   0   0   0  0  0
   8 1003   1   0   0   1  0  1
   9 368   3   0   0   2  0  0
  10  52   0   0   0   9  0  0
  11 930   0   4   5   0  0  0
  12  52   0   0   0  10  0  0
  13  92   0   7   0   8  0  0
  14 1521   0   0   0   0  0  0
  15 1003   1   0   0   1  0  1
  16 368   4   0   0   2  0  0
  17  52   0   0   0  11  0  0
  18 930   0   4   5   0  0  0
  19  52   0   0   0  12  0  0
  20  92   0   7   0   8  0  0
  21 1521   0   0   0   0  0  0
  22 1003   1   0   0   1  0  1
  23 368   5   0   0   2  0  0
  24  52   0   0   0  13  0  0
  25 930   0   4   5   0  0  0
  26  52   0   0   0  14  0  0
  27  92   0   7   0   8  0  0
  28 1521   0   0   0   0  0  0
  29 1003   1   0   0   1  0  1
  30 368   6   0   0   2  0  0
  31  52   0   0   0  15  0  0
  32 930   0   4   5   0  0  0
  33  52   0   0   0  16  0  0
  34  92   0   7   0   8  0  0
  35 1521   0   0   0   0  0  0
  36 1003   1   0   0   1  0  1
  37 368   7   0   0   2  0  0
  38  52   0   0   0  16  0  0
  39 930   0   4   5   0  0  0
  40  52   0   0   0  15  0  0
  41  92   0   7   0   8  0  0
  42 1521   0   0   0   0  0  0
  43 1003   1   0   0   1  0  1
  44 368   8   0   0   2  0  0
  45  52   0   0   0  14  0  0
  46 930   0   4   5   0  0  0
  47  52   0   0   0  13  0  0
  48  92   0   7   0   8  0  0
  49 1521   0   0   0   0  0  0
  50 1003   1   0   0   1  0  1
  51 368   9   0   0   2  0  0
  52  52   0   0   0  12  0  0
  53 930   0   4   5   0  0  0
  54  52   0   0   0  11  0  0
  55  92   0   7   0   8  0  0
  56 1521   0   0   0   0  0  0
  57 1003   1   0   0   1  0  1
  58 368  10   0   0   2  0  0
  59  52   0   0   0  10  0  0
  60 930   0   4   5   0  0  0
  61  52   0   0   0   9  0  0
  62  92   0   7   0   8  0  0
  63 1521   0   0   0   0  0  0
  64 1003   1   0   0   1  0  1
  65 368  11   0   0   2  0  0
  66  52   0   0   0   6  0  0
  67 930   0   4   5   0  0  0
  68  52   0   0   0   3  0  0
  69  92   0   7   0   8  0  0
  70 1521   0   0   0   0  0  0
  71 1003   1   0   0   1  0  2
  72 368  12   0   0   2  0  0
  73  52   0   0   0   3  0  0
  74 930   0  17  18   0  0  0
  75  52   0   0   0   6  0  0
  76  92   0   7   0   8  0  0
  77 1521   0   0   0   0  0  0
  78 1003   1   0   0   1  0  2
  79 368  13   0   0   2  0  0
  80  52   0   0   0   9  0  0
  81 930   0  17  18   0  0  0
  82  52   0   0   0  10  0  0
  83  92   0   7   0   8  0  0
  84 1521   0   0   0   0  0  0
  85 1003   1   0   0   1  0  2
  86 368  14   0   0   2  0  0
  87  52   0   0   0  11  0  0
  88 930   0  17  18   0  0  0
  89  52   0   0   0  12  0  0
  90  92   0   7   0   8  0  0
  91 1521   0   0   0   0  0  0
  92 1003   1   0   0   1  0  2
  93 368  15   0   0   2  0  0
  94  52   0   0   0  13  0  0
  95 930   0  17  18   0  0  0
  96  52   0   0   0  14  0  0
  97  92   0   7   0   8  0  0
  98 1521   0   0   0   0  0  0
  99 1003   1   0   0   1  0  2
 100 368  16   0   0   2  0  0
 101  52   0   0   0  15  0  0
 102 930   0  17  18   0  0  0
 103  52   0   0   0  16  0  0
 104  92   0   7   0   8  0  0
 105 1521   0   0   0   0  0  0
 106 1003   1   0   0   1  0  2
 107 368  17   0   0   2  0  0
 108  52   0   0   0  16  0  0
 109 930   0  17  18   0  0  0
 110  52   0   0   0  15  0  0
 111  92   0   7   0   8  0  0
 112 1521   0   0   0   0  0  0
 113 1003   1   0   0   1  0  2
 114 368  18   0   0   2  0  0
 115  52   0   0   0  14  0  0
 116 930   0  17  18   0  0  0
 117  52   0   0   0  13  0  0
 118  92   0   7   0   8  0  0
 119 1521   0   0   0   0  0  0
 120 1003   1   0   0   1  0  2
 121 368  19   0   0   2  0  0
 122  52   0   0   0  12  0  0
 123 930   0  17  18   0  0  0
 124  52   0   0   0  11  0  0
 125  92   0   7   0   8  0  0
 126 1521   0   0   0   0  0  0
 127 1003   1   0   0   1  0  2
 128 368  20   0   0   2  0  0
 129  52   0   0   0  10  0  0
 130 930   0  17  18   0  0  0
 131  52   0   0   0   9  0  0
 132  92   0   7   0   8  0  0
 133 1521   0   0   0   0  0  0
 134 1003   1   0   0   1  0  2
 135 368  21   0   0   2  0  0
 136  52   0   0   0   6  0  0
 137 930   0  17  18   0  0  0
 138  52   0   0   0   3  0  0
 139  92   0   7   0   8  0  0
 140 1521   0   0   0   0  0  0
 141 1003   1   0   0   1  0  3
 142 368  22   0   0   2  0  0
 143  52   0   0   0   3  0  0
 144 930   0  19  20   0  0  0
 145  52   0   0   0   6  0  0
 146  92   0   7   0   8  0  0
 147 1521   0   0   0   0  0  0
 148 1003   1   0   0   1  0  3
 149 368  23   0   0   2  0  0
 150  52   0   0   0   9  0  0
 151 930   0  19  20   0  0  0
 152  52   0   0   0  10  0  0
 153  92   0   7   0   8  0  0
 154 1521   0   0   0   0  0  0
 155 1003   1   0   0   1  0  3
 156 368  24   0   0   2  0  0
 157  52   0   0   0  11  0  0
 158 930   0  19  20   0  0  0
 159  52   0   0   0  12  0  0
 160  92   0   7   0   8  0  0
 161 1521   0   0   0   0  0  0
 162 1003   1   0   0   1  0  3
 163 368  25   0   0   2  0  0
 164  52   0   0   0  13  0  0
 165 930   0  19  20   0  0  0
 166  52   0   0   0  14  0  0
 167  92   0   7   0   8  0  0
 168 1521   0   0   0   0  0  0
 169 1003   1   0   0   1  0  3
 170 368  26   0   0   2  0  0
 171  52   0   0   0  15  0  0
 172 930   0  19  20   0  0  0
 173  52   0   0   0  16  0  0
 174  92   0   7   0   8  0  0
 175 1521   0   0   0   0  0  0
 176 1003   1   0   0   1  0  3
 177 368  27   0   0   2  0  0
 178  52   0   0   0  16  0  0
 179 930   0  19  20   0  0  0
 180  52   0   0   0  15  0  0
 181  92   0   7   0   8  0  0
 182 1521   0   0   0   0  0  0
 183 1003   1   0   0   1  0  3
 184 368  28   0   0   2  0  0
 185  52   0   0   0  14  0  0
 186 930   0  19  20   0  0  0
 187  52   0   0   0  13  0  0
 188  92   0   7   0   8  0  0
 189 1521   0   0   0   0  0  0
 190 1003   1   0   0   1  0  3
 191 368  29   0   0   2  0  0
 192  52   0   0   0  12  0  0
 193 930   0  19  20   0  0  0
 194  52   0   0   0  11  0  0
 195  92   0   7   0   8  0  0
 196 1521   0   0   0   0  0  0
 197 1003   1   0   0   1  0  3
 198 368  30   0   0   2  0  0
 199  52   0   0   0  10  0  0
 200 930   0  19  20   0  0  0
 201  52   0   0   0   9  0  0
 202  92   0   7   0   8  0  0
 203 1521   0   0   0   0  0  0
 204 1003   1   0   0   1  0  3
 205 368  31   0   0   2  0  0
 206  52   0   0   0   6  0  0
 207 930   0  19  20   0  0  0
 208  52   0   0   0   3  0  0
 209  92   0   7   0   8  0  0
 210 1521   0   0   0   0  0  0
 211 1003   1   0   0   1  0  4
 212 368  32   0   0   2  0  0
 213  52   0   0   0   3  0  0
 214 930   0  21   4   0  0  0
 215  52   0   0   0   6  0  0
 216  92   0   7   0   8  0  0
 217 1521   0   0   0   0  0  0
 218 1003   1   0   0   1  0  4
 219 368  33   0   0   2  0  0
 220  52   0   0   0   9  0  0
 221 930   0  21   4   0  0  0
 222  52   0   0   0  10  0  0
 223  92   0   7   0   8  0  0
 224 1521   0   0   0   0  0  0
 225 1003   1   0   0   1  0  4
 226 368  34   0   0   2  0  0
 227  52   0   0   0  11  0  0
 228 930   0  21   4   0  0  0
 229  52   0   0   0  12  0  0
 230  92   0   7   0   8  0  0
 231 1521   0   0   0   0  0  0
 232 1003   1   0   0   1  0  4
 233 368  35   0   0   2  0  0
 234  52   0   0   0  13  0  0
 235 930   0  21   4   0  0  0
 236  52   0   0   0  14  0  0
 237  92   0   7   0   8  0  0
 238 1521   0   0   0   0  0  0
 239 1003   1   0   0   1  0  4
 240 368  36   0   0   2  0  0
 241  52   0   0   0  15  0  0
 242 930   0  21   4   0  0  0
 243  52   0   0   0  16  0  0
 244  92   0   7   0   8  0  0
 245 1521   0   0   0   0  0  0
 246 1003   1   0   0   1  0  4
 247 368  37   0   0   2  0  0
 248  52   0   0   0  16  0  0
 249 930   0  21   4   0  0  0
 250  52   0   0   0  15  0  0
 251  92   0   7   0   8  0  0
 252 1521   0   0   0   0  0  0
 253 1003   1   0   0   1  0  4
 254 368  38   0   0   2  0  0
 255  52   0   0   0  14  0  0
 256 930   0  21   4   0  0  0
 257  52   0   0   0  13  0  0
 258  92   0   7   0   8  0  0
 259 1521   0   0   0   0  0  0
 260 1003   1   0   0   1  0  4
 261 368  39   0   0   2  0  0
 262  52   0   0   0  12  0  0
 263 930   0  21   4   0  0  0
 264  52   0   0   0  11  0  0
 265  92   0   7   0   8  0  0
 266 1521   0   0   0   0  0  0
 267 1003   1   0   0   1  0  4
 268 368  40   0   0   2  0  0
 269  52   0   0   0  10  0  0
 270 930   0  21   4   0  0  0
 271  52   0   0   0   9  0  0
 272  92   0   7   0   8  0  0
 273 1521   0   0   0   0  0  0
 274 1003   1   0   0   1  0  4
 275 368  41   0   0   2  0  0
 276  52   0   0   0   6  0  0
 277 930   0  21   4   0  0  0
 278  52   0   0   0   3  0  0
 279  92   0   7   0   8  0  0
 280 1521   0   0   0   0  0  0
 281 1003   1   0   0   1  0  5
 282 368  42   0   0   2  0  0
 283  52   0   0   0   3  0  0
 284 930   0  22  17   0  0  0
 285  52   0   0   0   6  0  0
 286  92   0   7   0   8  0  0
 287 1521   0   0   0   0  0  0
 288 1003   1   0   0   1  0  5
 289 368  43   0   0   2  0  0
 290  52   0   0   0   9  0  0
 291 930   0  22  17   0  0  0
 292  52   0   0   0  10  0  0
 293  92   0   7   0   8  0  0
 294 1521   0   0   0   0  0  0
 295 1003   1   0   0   1  0  5
 296 368  44   0   0   2  0  0
 297  52   0   0   0  11  0  0
 298 930   0  22  17   0  0  0
 299  52   0   0   0  12  0  0
 300  92   0   7   0   8  0  0
 301 1521   0   0   0   0  0  0
 302 1003   1   0   0   1  0  5
 303 368  45   0   0   2  0  0
 304  52   0   0   0  13  0  0
 305 930   0  22  17   0  0  0
 306  52   0   0   0  14  0  0
 307  92   0   7   0   8  0  0
 308 1521   0   0   0   0  0  0
[RF]
1      134.648 1 2 0 100 -440.662 0
2      108.962 3 4 0 340 0 2.04204
3      108.962 3 4 0 340 0 4.08407
4      108.962 3 4 0 340 0 6.12611
5      108.962 3 4 0 340 0 8.16814
6      108.962 3 4 0 340 0 10.2102
7      108.962 3 4 0 340 0 12.2522
8      108.962 3 4 0 340 0 14.2942
9      108.962 3 4 0 340 0 16.3363
10      108.962 3 4 0 340 0 18.3783
11      108.962 3 4 0 340 0 20.4204
12      108.962 3 4 0 340 0 22.4624
13      108.962 3 4 0 340 0 24.5044
14      108.962 3 4 0 340 0 26.5465
15      108.962 3 4 0 340 0 28.5885
16      108.962 3 4 0 340 0 30.6305
17      108.962 3 4 0 340 0 32.6726
18      108.962 3 4 0 340 0 34.7146
19      108.962 3 4 0 340 0 36.7566
20      108.962 3 4 0 340 0 38.7987
21      108.962 3 4 0 340 0 40.8407
22      108.962 3 4 0 340 0 42.8827
23      108.962 3 4 0 340 0 44.9248
24      108.962 3 4 0 340 0 46.9668
25      108.962 3 4 0 340 0 49.0088
26      108.962 3 4 0 340 0 51.0509
27      108.962 3 4 0 340 0 53.0929
28      108.962 3 4 0 340 0 55.135
29      108.962 3 4 0 340 0 57.177
30      108.962 3 4 0 340 0 59.219
31      108.962 3 4 0 340 0 61.2611
32      108.962 3 4 0 340 0 63.3031
33      108.962 3 4 0 340 0 65.3451
34      108.962 3 4 0 340 0 67.3872
35      108.962 3 4 0 340 0 69.4292
36      108.962 3 4 0 340 0 71.4712
37      108.962 3 4 0 340 0 73.5133
38      108.962 3 4 0 340 0 75.5553
39      108.962 3 4 0 340 0 77.5973
40      108.962 3 4 0 340 0 79.6394
41      108.962 3 4 0 340 0 81.6814
42      108.962 3 4 0 340 0 83.7234
43      108.962 3 4 0 340 0 85.7655
44      108.962 3 4 0 340 0 87.8075
45      108.962 3 4 0 340 0 89.8495
46      108.962 3 4 0 340 0 91.8916
47      108.962 3 4 0 340 0 93.9336
48      108.962 3 4 0 340 0 95.9757
49      108.962 3 4 0 340 0 98.0177
50      108.962 3 4 0 340 0 100.06
51      108.962 3 4 0 340 0 102.102
52      108.962 3 4 0 340 0 104.144
53      108.962 3 4 0 340 0 106.186
54      108.962 3 4 0 340 0 108.228
55      108.962 3 4 0 340 0 110.27
56      108.962 3 4 0 340 0 112.312
57      108.962 3 4 0 340 0 114.354
58      108.962 3 4 0 340 0 116.396
59      108.962 3 4 0 340 0 118.438
60      108.962 3 4 0 340 0 120.48
61      108.962 3 4 0 340 0 122.522
62      108.962 3 4 0 340 0 124.564
63      108.962 3 4 0 340 0 126.606
64      108.962 3 4 0 340 0 128.648
65      108.962 3 4 0 340 0 130.69
66      108.962 3 4 0 340 0 132.732
67      108.962 3 4 0 340 0 134.774
68      108.962 3 4 0 340 0 136.816
69      108.962 3 4 0 340 0 138.858
70      108.962 3 4 0 340 0 140.9
71      108.962 3 4 0 340 0 142.942
72      108.962 3 4 0 340 0 144.985
73      108.962 3 4 0 340 0 147.027
74      108.962 3 4 0 340 0 149.069
75      108.962 3 4 0 340 0 151.111
76      108.962 3 4 0 340 0 153.153
77      108.962 3 4 0 340 0 155.195
78      108.962 3 4 0 340 0 157.237
79      108.962 3 4 0 340 0 159.279
80      108.962 3 4 0 340 0 161.321
81      108.962 3 4 0 340 0 163.363
82      108.962 3 4 0 340 0 165.405
83      108.962 3 4 0 340 0 167.447
84      108.962 3 4 0 340 0 169.489
85      108.962 3 4 0 340 0 171.531
86      108.962 3 4 0 340 0 173.573
87      108.962 3 4 0 340 0 175.615
88      108.962 3 4 0 340 0 177.657
89      108.962 3 4 0 340 0 179.699
90      108.962 3 4 0 340 0 181.741
91      108.962 3 4 0 340 0 183.783
92      108.962 3 4 0 340 0 185.825
93      108.962 3 4 0 340 0 187.867
94      108.962 3 4 0 340 0 189.909
95      108.962 3 4 0 340 0 191.951
96      108.962 3 4 0 340 0 193.993
97      108.962 3 4 0 340 0 196.035
98      108.962 3 4 0 340 0 198.077
99      108.962 3 4 0 340 0 200.119
100      108.962 3 4 0 340 0 202.161
101      108.962 3 4 0 340 0 204.204
102      108.962 3 4 0 340 0 206.246
103      108.962 3 4 0 340 0 208.288
104      108.962 3 4 0 340 0 210.33
105      108.962 3 4 0 340 0 212.372
106      108.962 3 4 0 340 0 214.414
107      108.962 3 4 0 340 0 216.456
108      108.962 3 4 0 340 0 218.498
109      108.962 3 4 0 340 0 220.54
110      108.962 3 4 0 340 0 222.582
111      108.962 3 4 0 340 0 224.624
112      108.962 3 4 0 340 0 226.666
113      108.962 3 4 0 340 0 228.708
114      108.962 3 4 0 340 0 230.75
115      108.962 3 4 0 340 0 232.792
116      108.962 3 4 0 340 0 234.834
117      108.962 3 4 0 340 0 236.876
118      108.962 3 4 0 340 0 238.918
119      108.962 3 4 0 340 0 240.96
120      108.962 3 4 0 340 0 243.002
121      108.962 3 4 0 340 0 245.044
122      108.962 3 4 0 340 0 247.086
123      108.962 3 4 0 340 0 249.128
124      108.962 3 4 0 340 0 251.17
125      108.962 3 4 0 340 0 253.212
126      108.962 3 4 0 340 0 255.254
127      108.962 3 4 0 340 0 257.296
128      108.962 3 4 0 340 0 259.338
129      108.962 3 4 0 340 0 261.381
130      108.962 3 4 0 340 0 263.423
131      108.962 3 4 0 340 0 265.465
132      108.962 3 4 0 340 0 267.507
133      108.962 3 4 0 340 0 269.549
134      108.962 3 4 0 340 0 271.591
135      108.962 3 4 0 340 0 273.633
136      108.962 3 4 0 340 0 275.675
137      108.962 3 4 0 340 0 277.717
138      108.962 3 4 0 340 0 279.759
139      108.962 3 4 0 340 0 281.801
140      108.962 3 4 0 340 0 283.843
141      108.962 3 4 0 340 0 285.885
142      108.962 3 4 0 340 0 287.927
143      108.962 3 4 0 340 0 289.969
144      108.962 3 4 0 340 0 292.011
145      108.962 3 4 0 340 0 294.053
146      108.962 3 4 0 340 0 296.095
147      108.962 3 4 0 340 0 298.137
148      108.962 3 4 0 340 0 300.179
149      108.962 3 4 0 340 0 302.221
150      108.962 3 4 0 340 0 304.263
151      108.962 3 4 0 340 0 306.305
152      108.962 3 4 0 340 0 308.347
153      108.962 3 4 0 340 0 310.389
154      108.962 3 4 0 340 0 312.431
155      108.962 3 4 0 340 0 314.473
156      108.962 3 4 0 340 0 316.515
157      108.962 3 4 0 340 0 318.557
158      108.962 3 4 0 340 0 320.6
159      108.962 3 4 0 340 0 322.642
160      108.962 3 4 0 340 0 324.684
161      108.962 3 4 0 340 0 326.726
162      108.962 3 4 0 340 0 328.768
163      108.962 3 4 0 340 0 330.81
164      108.962 3 4 0 340 0 332.852
165      108.962 3 4 0 340 0 334.894
166      108.962 3 4 0 340 0 336.936
167      108.962 3 4 0 340 0 338.978
168      108.962 3 4 0 340 0 341.02
169      108.962 3 4 0 340 0 343.062
170      108.962 3 4 0 340 0 345.104
171      108.962 3 4 0 340 0 347.146
172      108.962 3 4 0 340 0 349.188
173      108.962 3 4 0 340 0 351.23
174      108.962 3 4 0 340 0 353.272
175      108.962 3 4 0 340 0 355.314
176      108.962 3 4 0 340 0 357.356
177      108.962 3 4 0 340 0 359.398
178      108.962 3 4 0 340 0 361.44
179      108.962 3 4 0 340 0 363.482
180      108.962 3 4 0 340 0 365.524
181      108.962 3 4 0 340 0 367.566
182      108.962 3 4 0 340 0 369.608
183      108.962 3 4 0 340 0 371.65
184      108.962 3 4 0 340 0 373.692
185      108.962 3 4 0 340 0 375.734
186      108.962 3 4 0 340 0 377.777
187      108.962 3 4 0 340 0 379.819
188      108.962 3 4 0 340 0 381.861
189      108.962 3 4 0 340 0 383.903
190      108.962 3 4 0 340 0 385.945
191      108.962 3 4 0 340 0 387.987
192      108.962 3 4 0 340 0 390.029
193      108.962 3 4 0 340 0 392.071
194      108.962 3 4 0 340 0 394.113
195      108.962 3 4 0 340 0 396.155
196      108.962 3 4 0 340 0 398.197
197      108.962 3 4 0 340 0 400.239
198      108.962 3 4 0 340 0 402.281
199      108.962 3 4 0 340 0 404.323
200      108.962 3 4 0 340 0 406.365
201      108.962 3 4 0 340 0 408.407
202      108.962 3 4 0 340 0 410.449
203      108.962 3 4 0 340 0 412.491
204      108.962 3 4 0 340 0 414.533
205      108.962 3 4 0 340 0 416.575
206      108.962 3 4 0 340 0 418.617
207      108.962 3 4 0 340 0 420.659
208      108.962 3 4 0 340 0 422.701
209      108.962 3 4 0 340 0 424.743
210      108.962 3 4 0 340 0 426.785
211      108.962 3 4 0 340 0 428.827
212      108.962 3 4 0 340 0 430.869
213      108.962 3 4 0 340 0 432.911
214      108.962 3 4 0 340 0 434.954
215      108.962 3 4 0 340 0 436.996
216      108.962 3 4 0 340 0 439.038
217      108.962 3 4 0 340 0 441.08
218      108.962 3 4 0 340 0 443.122
219      108.962 3 4 0 340 0 445.164
220      108.962 3 4 0 340 0 447.206
221      108.962 3 4 0 340 0 449.248
222      108.962 3 4 0 340 0 451.29
223      108.962 3 4 0 340 0 453.332
224      108.962 3 4 0 340 0 455.374
225      108.962 3 4 0 340 0 457.416
226      108.962 3 4 0 340 0 459.458
227      108.962 3 4 0 340 0 461.5
228      108.962 3 4 0 340 0 463.542
229      108.962 3 4 0 340 0 465.584
230      108.962 3 4 0 340 0 467.626
231      108.962 3 4 0 340 0 469.668
232      108.962 3 4 0 340 0 471.71
233      108.962 3 4 0 340 0 473.752
234      108.962 3 4 0 340 0 475.794
235      108.962 3 4 0 340 0 477.836
236      108.962 3 4 0 340 0 479.878
237      108.962 3 4 0 340 0 481.92
238      108.962 3 4 0 340 0 483.962
239      108.962 3 4 0 340 0 486.004
240      108.962 3 4 0 340 0 488.046
241      108.962 3 4 0 340 0 490.088
242      108.962 3 4 0 340 0 492.13
243      108.962 3 4 0 340 0 494.173
244      108.962 3 4 0 340 0 496.215
245      108.962 3 4 0 340 0 498.257
246      108.962 3 4 0 340 0 500.299
247      108.962 3 4 0 340 0 502.341
248      108.962 3 4 0 340 0 504.383
249      108.962 3 4 0 340 0 506.425
250      108.962 3 4 0 340 0 508.467
251      108.962 3 4 0 340 0 510.509
252      108.962 3 4 0 340 0 512.551
253      108.962 3 4 0 340 0 514.593
254      108.962 3 4 0 340 0 516.635
255      108.962 3 4 0 340 0 518.677
256      108.962 3 4 0 340 0 520.719
257      108.962 3 4 0 340 0 522.761
258      108.962 3 4 0 340 0 524.803
259      108.962 3 4 0 340 0 526.845
260      108.962 3 4 0 340 0 528.887
261      108.962 3 4 0 340 0 530.929
262      108.962 3 4 0 340 0 532.971
263      108.962 3 4 0 340 0 535.013
264      108.962 3 4 0 340 0 537.055
265      108.962 3 4 0 340 0 539.097
266      108.962 3 4 0 340 0 541.139
267      108.962 3 4 0 340 0 543.181
268      108.962 3 4 0 340 0 545.223
269      108.962 3 4 0 340 0 547.265
270      108.962 3 4 0 340 0 549.307
271      108.962 3 4 0 340 0 551.35
272      108.962 3 4 0 340 0 553.392
273      108.962 3 4 0 340 0 555.434
274      108.962 3 4 0 340 0 557.476
275      108.962 3 4 0 340 0 559.518
276      108.962 3 4 0 340 0 561.56
277      108.962 3 4 0 340 0 563.602
278      108.962 3 4 0 340 0 565.644
279      108.962 3 4 0 340 0 567.686
280      108.962 3 4 0 340 0 569.728
281      108.962 3 4 0 340 0 571.77
282      108.962 3 4 0 340 0 573.812
283      108.962 3 4 0 340 0 575.854
284      108.962 3 4 0 340 0 577.896
285      108.962 3 4 0 340 0 579.938
286      108.962 3 4 0 340 0 581.98
287      108.962 3 4 0 340 0 584.022
288      108.962 3 4 0 340 0 586.064
289      108.962 3 4 0 340 0 588.106
290      108.962 3 4 0 340 0 590.148
291      108.962 3 4 0 340 0 592.19
292      108.962 3 4 0 340 0 594.232
293      108.962 3 4 0 340 0 596.274
294      108.962 3 4 0 340 0 598.316
295      108.962 3 4 0 340 0 600.358
296      108.962 3 4 0 340 0 602.4
297      108.962 3 4 0 340 0 604.442
298      108.962 3 4 0 340 0 606.484
299      108.962 3 4 0 340 0 608.526
300      108.962 3 4 0 340 0 610.569
301      108.962 3 4 0 340 0 612.611
302      108.962 3 4 0 340 0 614.653
303      108.962 3 4 0 340 0 616.695
304      108.962 3 4 0 340 0 618.737
305      108.962 3 4 0 340 0 620.779
306      108.962 3 4 0 340 0 622.821
307      108.962 3 4 0 340 0 624.863
308      108.962 3 4 0 340 0 626.905
309      108.962 3 4 0 340 0 628.947
310      108.962 3 4 0 340 0 630.989
311      108.962 3 4 0 340 0 633.031
312      108.962 3 4 0 340 0 635.073
313      108.962 3 4 0 340 0 637.115
314      108.962 3 4 0 340 0 639.157
315      108.962 3 4 0 340 0 641.199
316      108.962 3 4 0 340 0 643.241
317      108.962 3 4 0 340 0 645.283
318      108.962 3 4 0 340 0 647.325
319      108.962 3 4 0 340 0 649.367
320      108.962 3 4 0 340 0 651.409
321      108.962 3 4 0 340 0 653.451
322      108.962 3 4 0 340 0 655.493
323      108.962 3 4 0 340 0 657.535
324      108.962 3 4 0 340 0 659.577
325      108.962 3 4 0 340 0 661.619
326      108.962 3 4 0 340 0 663.661
327      108.962 3 4 0 340 0 665.703
328      108.962 3 4 0 340 0 667.746
329      108.962 3 4 0 340 0 669.788
330      108.962 3 4 0 340 0 671.83
331      108.962 3 4 0 340 0 673.872
332      108.962 3 4 0 340 0 675.914
333      108.962 3 4 0 340 0 677.956
334      108.962 3 4 0 340 0 679.998
335      108.962 3 4 0 340 0 682.04
336      108.962 3 4 0 340 0 684.082
337      108.962 3 4 0 340 0 686.124
338      108.962 3 4 0 340 0 688.166
339      108.962 3 4 0 340 0 690.208
340      108.962 3 4 0 340 0 692.25
341      108.962 3 4 0 340 0 694.292
342      108.962 3 4 0 340 0 696.334
343      108.962 3 4 0 340 0 698.376
344      108.962 3 4 0 340 0 700.418
345      108.962 3 4 0 340 0 702.46
346      108.962 3 4 0 340 0 704.502
347      108.962 3 4 0 340 0 706.544
348      108.962 3 4 0 340 0 708.586
349      108.962 3 4 0 340 0 710.628
350      108.962 3 4 0 340 0 712.67
351      108.962 3 4 0 340 0 714.712
352      108.962 3 4 0 340 0 716.754
353      108.962 3 4 0 340 0 718.796
354      108.962 3 4 0 340 0 720.838
355      108.962 3 4 0 340 0 722.88
356      108.962 3 4 0 340 0 724.923
357      108.962 3 4 0 340 0 726.965
358      108.962 3 4 0 340 0 729.007
359      108.962 3 4 0 340 0 731.049
360      108.962 3 4 0 340 0 733.091
361      108.962 3 4 0 340 0 735.133
362      108.962 3 4 0 340 0 737.175
363      108.962 3 4 0 340 0 739.217
364      108.962 3 4 0 340 0 741.259
365      108.962 3 4 0 340 0 743.301
366      108.962 3 4 0 340 0 745.343
367      108.962 3 4 0 340 0 747.385
368      108.962 3 4 0 340 0 749.427
369      108.962 3 4 0 340 0 751.469
370      108.962 3 4 0 340 0 753.511
371      108.962 3 4 0 340 0 755.553
372      108.962 3 4 0 340 0 757.595
373      108.962 3 4 0 340 0 759.637
374      108.962 3 4 0 340 0 761.679
375      108.962 3 4 0 340 0 763.721
376      108.962 3 4 0 340 0 765.763
377      108.962 3 4 0 340 0 767.805
378      108.962 3 4 0 340 0 769.847
379      108.962 3 4 0 340 0 771.889
380      108.962 3 4 0 340 0 773.931
381      108.962 3 4 0 340 0 775.973
382      108.962 3 4 0 340 0 778.015
383      108.962 3 4 0 340 0 780.057
384      108.962 3 4 0 340 0 782.099
385      108.962 3 4 0 340 0 784.142
386      108.962 3 4 0 340 0 786.184
387      108.962 3 4 0 340 0 788.226
388      108.962 3 4 0 340 0 790.268
389      108.962 3 4 0 340 0 792.31
390      108.962 3 4 0 340 0 794.352
391      108.962 3 4 0 340 0 796.394
392      108.962 3 4 0 340 0 798.436
393      108.962 3 4 0 340 0 800.478
394      108.962 3 4 0 340 0 802.52
395      108.962 3 4 0 340 0 804.562
396      108.962 3 4 0 340 0 806.604
397      108.962 3 4 0 340 0 808.646
398      108.962 3 4 0 340 0 810.688
399      108.962 3 4 0 340 0 812.73
400      108.962 3 4 0 340 0 814.772
401      108.962 3 4 0 340 0 816.814
402      108.962 3 4 0 340 0 818.856
403      108.962 3 4 0 340 0 820.898
404      108.962 3 4 0 340 0 822.94
405      108.962 3 4 0 340 0 824.982
406      108.962 3 4 0 340 0 827.024
407      108.962 3 4 0 340 0 829.066
408      108.962 3 4 0 340 0 831.108
409      108.962 3 4 0 340 0 833.15
410      108.962 3 4 0 340 0 835.192
411      108.962 3 4 0 340 0 837.234
412      108.962 3 4 0 340 0 839.276
413      108.962 3 4 0 340 0 841.319
414      108.962 3 4 0 340 0 843.361
415      108.962 3 4 0 340 0 845.403
416      108.962 3 4 0 340 0 847.445
417      108.962 3 4 0 340 0 849.487
418      108.962 3 4 0 340 0 851.529
419      108.962 3 4 0 340 0 853.571
420      108.962 3 4 0 340 0 855.613
421      108.962 3 4 0 340 0 857.655
422      108.962 3 4 0 340 0 859.697
423      108.962 3 4 0 340 0 861.739
424      108.962 3 4 0 340 0 863.781
425      108.962 3 4 0 340 0 865.823
426      108.962 3 4 0 340 0 867.865
427      108.962 3 4 0 340 0 869.907
428      108.962 3 4 0 340 0 871.949
429      108.962 3 4 0 340 0 873.991
430      108.962 3 4 0 340 0 876.033
431      108.962 3 4 0 340 0 878.075
432      108.962 3 4 0 340 0 880.117
433      108.962 3 4 0 340 0 882.159
434      108.962 3 4 0 340 0 884.201
435      108.962 3 4 0 340 0 886.243
436      108.962 3 4 0 340 0 888.285
437      108.962 3 4 0 340 0 890.327
438      108.962 3 4 0 340 0 892.369
439      108.962 3 4 0 340 0 894.411
440      108.962 3 4 0 340 0 896.453
441      108.962 3 4 0 340 0 898.495
442      108.962 3 4 0 340 0 900.538
443      108.962 3 4 0 340 0 902.58
444      108.962 3 4 0 340 0 904.622
445      108.962 3 4 0 340 0 906.664
446      108.962 3 4 0 340 0 908.706
447      108.962 3 4 0 340 0 910.748
448      108.962 3 4 0 340 0 912.79
449      108.962 3 4 0 340 0 914.832
450      108.962 3 4 0 340 0 916.874
451      108.962 3 4 0 340 0 918.916
452      108.962 3 4 0 340 0 920.958
453      108.962 3 4 0 340 0 923
454      108.962 3 4 0 340 0 925.042
455      108.962 3 4 0 340 0 927.084
456      108.962 3 4 0 340 0 929.126
457      108.962 3 4 0 340 0 931.168
458      108.962 3 4 0 340 0 933.21
459      108.962 3 4 0 340 0 935.252
460      108.962 3 4 0 340 0 937.294
461      108.962 3 4 0 340 0 939.336
462      108.962 3 4 0 340 0 941.378
463      108.962 3 4 0 340 0 943.42
464      108.962 3 4 0 340 0 945.462
465      108.962 3 4 0 340 0 947.504
466      108.962 3 4 0 340 0 949.546
467      108.962 3 4 0 340 0 951.588
468      108.962 3 4 0 340 0 953.63
469      108.962 3 4 0 340 0 955.672
470      108.962 3 4 0 340 0 957.715
471      108.962 3 4 0 340 0 959.757
472      108.962 3 4 0 340 0 961.799
473      108.962 3 4 0 340 0 963.841
474      108.962 3 4 0 340 0 965.883
475      108.962 3 4 0 340 0 967.925
476      108.962 3 4 0 340 0 969.967
477      108.962 3 4 0 340 0 972.009
478      108.962 3 4 0 340 0 974.051
479      108.962 3 4 0 340 0 976.093
480      108.962 3 4 0 340 0 978.135
481      108.962 3 4 0 340 0 980.177
482      108.962 3 4 0 340 0 982.219
483      108.962 3 4 0 340 0 984.261
484      108.962 3 4 0 340 0 986.303
485      108.962 3 4 0 340 0 988.345
486      108.962 3 4 0 340 0 990.387
487      108.962 3 4 0 340 0 992.429
488      108.962 3 4 0 340 0 994.471
489      108.962 3 4 0 340 0 996.513
490      108.962 3 4 0 340 0 998.555
491      108.962 3 4 0 340 0 1000.6
492      108.962 3 4 0 340 0 1002.64
493      108.962 3 4 0 340 0 1004.68
494      108.962 3 4 0 340 0 1006.72
495      108.962 3 4 0 340 0 1008.77
496      108.962 3 4 0 340 0 1010.81
497      108.962 3 4 0 340 0 1012.85
498      108.962 3 4 0 340 0 1014.89
499      108.962 3 4 0 340 0 1016.93
500      108.962 3 4 0 340 0 1018.98
501      108.962 3 4 0 340 0 1021.02
502      108.962 3 4 0 340 0 1023.06
503      108.962 3 4 0 340 0 1025.1
504      108.962 3 4 0 340 0 1027.14
505      108.962 3 4 0 340 0 1029.19
506      108.962 3 4 0 340 0 1031.23
507      108.962 3 4 0 340 0 1033.27
508      108.962 3 4 0 340 0 1035.31
509      108.962 3 4 0 340 0 1037.35
510      108.962 3 4 0 340 0 1039.4
511      108.962 3 4 0 340 0 1041.44
512      108.962 3 4 0 340 0 1043.48
513      108.962 3 4 0 340 0 1045.52
514      108.962 3 4 0 340 0 1047.56
515      108.962 3 4 0 340 0 1049.61
516      108.962 3 4 0 340 0 1051.65
517      108.962 3 4 0 340 0 1053.69
518      108.962 3 4 0 340 0 1055.73
519      108.962 3 4 0 340 0 1057.77
520      108.962 3 4 0 340 0 1059.82
521      108.962 3 4 0 340 0 1061.86
522      108.962 3 4 0 340 0 1063.9
523      108.962 3 4 0 340 0 1065.94
524      108.962 3 4 0 340 0 1067.98
525      108.962 3 4 0 340 0 1070.03
526      108.962 3 4 0 340 0 1072.07
527      108.962 3 4 0 340 0 1074.11
528      108.962 3 4 0 340 0 1076.15
529      108.962 3 4 0 340 0 1078.19
530      108.962 3 4 0 340 0 1080.24
531      108.962 3 4 0 340 0 1082.28
532      108.962 3 4 0 340 0 1084.32
533      108.962 3 4 0 340 0 1086.36
534      108.962 3 4 0 340 0 1088.4
535      108.962 3 4 0 340 0 1090.45
536      108.962 3 4 0 340 0 1092.49
537      108.962 3 4 0 340 0 1094.53
538      108.962 3 4 0 340 0 1096.57
539      108.962 3 4 0 340 0 1098.61
540      108.962 3 4 0 340 0 1100.66
541      108.962 3 4 0 340 0 1102.7
542      108.962 3 4 0 340 0 1104.74
543      108.962 3 4 0 340 0 1106.78
544      108.962 3 4 0 340 0 1108.83
